E1,E2,E3,E4,E5,E6
0.0,0.0,0.0,0.0,0.0,0.0
0.0,0.0,0.0,0.0,0.0,0.0
0.0,0.0,0.0,0.0,0.0,0.0
0.0,0.0,0.0,0.0,0.0,0.0
0.0,0.0,0.0,0.0,0.0,0.0
0.0,0.0,0.0,0.0,0.0,0.0
0.0,0.0,0.0,0.0,0.0,0.0
0.0,0.0,0.0,0.0,0.0,0.0
0.0,0.0,0.0,0.0,0.0,0.0
0.0,0.0,0.0,0.0,0.0,0.0
0.0,0.0,0.0,0.0,0.0,0.0
0.0,0.0,0.0,0.0,0.0,0.0
0.0,0.0,0.0,0.0,0.0,0.0
0.0,0.0,0.0,0.0,0.0,0.0
0.0,0.0,0.0,0.0,0.0,0.0
0.0,0.0,0.0,0.0,0.0,0.0
0.0,0.0,0.0,0.0,0.0,0.0
0.0,0.0,0.0,0.0,0.0,0.0
0.0,0.0,0.0,0.0,0.0,0.0
0.0,0.0,0.0,0.0,0.0,0.0
0.0,0.0,0.0,0.0,0.0,0.0
0.0,0.0,0.0,0.0,0.0,0.0
0.0,0.0,0.0,0.0,0.0,0.0
0.0,0.0,0.0,0.0,0.0,0.0
0.0,0.0,0.0,0.0,0.0,0.0
0.0,0.0,0.0,0.0,0.0,0.0
0.0,0.0,0.0,0.0,0.0,0.0
0.0,0.0,0.0,0.0,0.0,0.0
0.0,0.0,0.0,0.0,0.0,0.0
0.0,0.0,0.0,0.0,0.0,0.0
0.0,0.0,0.0,0.0,0.0,0.0
0.0,0.0,0.0,0.0,0.0,0.0
0.0,0.0,0.0,0.0,0.0,0.0
0.0,0.0,0.0,0.0,0.0,0.0
0.0,0.0,0.0,0.0,0.0,0.0
0.0,0.0,0.0,0.0,0.0,0.0
0.0,0.0,0.0,0.0,0.0,0.0
0.0,0.0,0.0,0.0,0.0,0.0
0.0,0.0,0.0,0.0,0.0,0.0
0.0,0.0,0.0,0.0,0.0,0.0
0.0,0.0,0.0,0.0,0.0,0.0
0.0,0.0,0.0,0.0,0.0,0.0
0.0,0.0,0.0,0.0,0.0,0.0
0.0,0.0,0.0,0.0,0.0,0.0
0.0,0.0,0.0,0.0,0.0,0.0
0.0,0.0,0.0,0.0,0.0,0.0
0.0,0.0,0.0,0.0,0.0,0.0
0.0,0.0,0.0,0.0,0.0,0.0
0.0,0.0,0.0,0.0,0.0,0.0
0.0,0.0,0.0,0.0,0.0,0.0
0.0,0.0,0.0,0.0,0.0,0.0
0.0,0.0,0.0,0.0,0.0,0.0
0.0,0.0,0.0,0.0,0.0,0.0
0.0,0.0,0.0,0.0,0.0,0.0
0.0,0.0,0.0,0.0,0.0,0.0
0.0,0.0,0.0,0.0,0.0,0.0
0.0,0.0,0.0,0.0,0.0,0.0
4017.0,4010.0,4021.0,4095.0,1291.0,3605.0
4017.0,4011.0,4021.0,4095.0,1291.0,3605.0
4017.0,4011.0,4018.0,4095.0,1291.0,3605.0
4010.0,3999.0,4023.0,4095.0,1285.0,2807.0
4010.0,4016.0,4023.0,4095.0,1285.0,2807.0
4006.0,4016.0,4017.0,4095.0,1274.0,2542.0
4006.0,4016.0,4017.0,4095.0,1274.0,2542.0
4014.0,4002.0,4017.0,4095.0,1274.0,2542.0
4014.0,4002.0,4022.0,4095.0,1275.0,2341.0
4019.0,4018.0,4022.0,4095.0,1275.0,2341.0
4019.0,4018.0,4039.0,4095.0,1275.0,2187.0
4019.0,4018.0,4039.0,4095.0,1275.0,2187.0
4019.0,4018.0,4039.0,4095.0,1275.0,2187.0
4030.0,4022.0,4051.0,4095.0,1275.0,2000.0
4002.0,4012.0,4014.0,4095.0,1270.0,2000.0
4002.0,4012.0,4014.0,4095.0,1270.0,1862.0
3998.0,3984.0,4016.0,4095.0,1287.0,1777.0
3998.0,3984.0,4016.0,4095.0,1287.0,1777.0
0.0,0.0,0.0,0.0,0.0,0.0
0.0,0.0,0.0,0.0,0.0,0.0
3987.0,4005.0,4014.0,4095.0,1281.0,1719.0
4038.0,3976.0,4010.0,4095.0,1277.0,1531.0
4007.0,3997.0,4011.0,4095.0,1277.0,1531.0
4007.0,3997.0,4011.0,4095.0,1286.0,1408.0
4007.0,3997.0,4011.0,4095.0,1286.0,1408.0
3983.0,4001.0,4011.0,4095.0,1286.0,1408.0
3983.0,4001.0,4018.0,4095.0,1273.0,865.0
4058.0,4001.0,4018.0,4095.0,1273.0,865.0
4058.0,3984.0,4021.0,4095.0,1266.0,587.0
4058.0,3984.0,4021.0,4095.0,1266.0,587.0
4058.0,3984.0,4021.0,4095.0,1266.0,587.0
4058.0,3984.0,4021.0,4095.0,1266.0,587.0
4016.0,3984.0,3984.0,4095.0,1290.0,815.0
4016.0,3984.0,3984.0,4095.0,1290.0,1008.0
4016.0,3984.0,3984.0,4095.0,1290.0,1008.0
4000.0,3998.0,3984.0,4095.0,1290.0,1008.0
4000.0,3998.0,4032.0,4095.0,1295.0,1077.0
4027.0,3999.0,4032.0,4095.0,1295.0,1077.0
4027.0,3999.0,4035.0,4095.0,1291.0,1041.0
4011.0,3995.0,4020.0,4095.0,1297.0,1041.0
4011.0,3995.0,4020.0,4095.0,1297.0,960.0
4007.0,4005.0,4059.0,4095.0,1282.0,915.0
4007.0,4005.0,4059.0,4095.0,1282.0,915.0
4007.0,4005.0,4059.0,4095.0,1282.0,915.0
4031.0,4011.0,4048.0,4095.0,1296.0,896.0
4033.0,4006.0,4048.0,4095.0,1296.0,896.0
4033.0,4006.0,4042.0,4095.0,1295.0,816.0
4011.0,4006.0,4042.0,4095.0,1295.0,816.0
4011.0,3981.0,4014.0,4095.0,1295.0,816.0
4011.0,3981.0,4014.0,4095.0,1291.0,846.0
4016.0,4015.0,4014.0,4095.0,1291.0,846.0
4016.0,4015.0,2859.0,4095.0,1302.0,821.0
4003.0,4015.0,2859.0,4095.0,1302.0,821.0
4003.0,3993.0,2736.0,4095.0,1296.0,771.0
4003.0,3993.0,2736.0,4095.0,1296.0,771.0
4003.0,3993.0,2736.0,4095.0,1296.0,771.0
4003.0,3997.0,4013.0,4095.0,1287.0,731.0
4006.0,4013.0,4007.0,4095.0,1299.0,749.0
4006.0,4003.0,4007.0,4095.0,1299.0,749.0
4006.0,4003.0,4021.0,4095.0,1303.0,785.0
4006.0,4003.0,4021.0,4095.0,1303.0,785.0
4006.0,4003.0,4021.0,4095.0,1303.0,785.0
4042.0,3965.0,3999.0,4095.0,1296.0,848.0
4024.0,3989.0,4013.0,4095.0,1306.0,848.0
4024.0,3989.0,4013.0,4095.0,1306.0,955.0
4016.0,3987.0,4013.0,4095.0,1296.0,1072.0
4016.0,3987.0,4013.0,4095.0,1296.0,1072.0
4016.0,3987.0,4013.0,4095.0,1296.0,1072.0
3995.0,4003.0,3994.0,4095.0,1303.0,1113.0
4002.0,3996.0,3994.0,4095.0,1303.0,1113.0
4002.0,3996.0,3892.0,4095.0,1301.0,1153.0
4002.0,3996.0,3892.0,4095.0,1301.0,1153.0
3999.0,4007.0,3892.0,4095.0,1301.0,1153.0
3999.0,4007.0,3197.0,4095.0,1299.0,1232.0
4010.0,3984.0,3197.0,4095.0,1299.0,1232.0
4010.0,3984.0,2582.0,4095.0,1303.0,1458.0
4022.0,3991.0,2582.0,4095.0,1303.0,1458.0
4022.0,3991.0,2170.0,4095.0,1303.0,1458.0
4022.0,3991.0,2170.0,4095.0,1323.0,1458.0
4022.0,3991.0,2170.0,4095.0,1323.0,1639.0
4034.0,4003.0,2092.0,4095.0,1323.0,1639.0
4034.0,4003.0,2092.0,4095.0,1315.0,1767.0
3312.0,3034.0,1653.0,4095.0,1313.0,1712.0
2864.0,2775.0,1653.0,4095.0,1313.0,1712.0
2864.0,2775.0,1473.0,4095.0,1309.0,1591.0
2864.0,2775.0,1473.0,4095.0,1309.0,1591.0
2864.0,2775.0,1473.0,4095.0,1309.0,1591.0
2790.0,4030.0,1347.0,4095.0,1315.0,1510.0
2474.0,3547.0,1527.0,4095.0,1315.0,1510.0
2474.0,3547.0,1527.0,4095.0,1275.0,1289.0
2322.0,3103.0,1315.0,4095.0,1290.0,1200.0
2334.0,3103.0,1315.0,4095.0,1290.0,1200.0
2334.0,2668.0,1193.0,4095.0,1296.0,1192.0
2334.0,2668.0,1193.0,4095.0,1296.0,1192.0
2334.0,2668.0,1193.0,4095.0,1296.0,1192.0
2206.0,2467.0,1008.0,4095.0,1303.0,1066.0
2290.0,2663.0,763.0,4095.0,1310.0,1066.0
2290.0,2663.0,763.0,4095.0,1310.0,1006.0
3022.0,3239.0,746.0,4095.0,1311.0,914.0
3022.0,3239.0,746.0,4095.0,1311.0,914.0
3022.0,3239.0,746.0,4095.0,1311.0,914.0
3022.0,3239.0,746.0,4095.0,1311.0,914.0
3530.0,3239.0,746.0,4095.0,1311.0,914.0
3993.0,3962.0,658.0,4095.0,1311.0,829.0
4009.0,3994.0,1676.0,4095.0,1310.0,717.0
4009.0,3994.0,1676.0,4095.0,1310.0,717.0
4009.0,3994.0,1676.0,4095.0,1310.0,717.0
4003.0,3994.0,1676.0,4095.0,1310.0,717.0
4003.0,3995.0,2899.0,4095.0,1303.0,717.0
4003.0,3995.0,2899.0,4095.0,1303.0,594.0
4019.0,3996.0,4038.0,4095.0,1311.0,574.0
4016.0,3996.0,4038.0,4095.0,1311.0,574.0
4016.0,4028.0,4027.0,4095.0,1312.0,500.0
4016.0,4028.0,4027.0,4095.0,1312.0,500.0
4068.0,4028.0,4027.0,4095.0,1312.0,500.0
4068.0,3997.0,4038.0,4095.0,1316.0,462.0
4012.0,3997.0,4038.0,4095.0,1316.0,462.0
4012.0,4015.0,4003.0,4095.0,1306.0,423.0
4048.0,4015.0,4003.0,4095.0,1306.0,423.0
4048.0,4005.0,4032.0,4095.0,1280.0,456.0
4048.0,4005.0,4032.0,4095.0,1280.0,456.0
4048.0,4005.0,4032.0,4095.0,1280.0,456.0
4011.0,4002.0,4020.0,4095.0,1296.0,456.0
4011.0,4002.0,4020.0,4095.0,1296.0,534.0
4016.0,4002.0,4020.0,4095.0,1296.0,534.0
4016.0,4014.0,4042.0,4095.0,1290.0,543.0
4006.0,4014.0,4042.0,4095.0,1290.0,543.0
4006.0,4014.0,4042.0,4095.0,1290.0,543.0
4006.0,3987.0,4042.0,4095.0,1290.0,543.0
4006.0,3987.0,4026.0,4095.0,1325.0,1624.0
4019.0,3987.0,4026.0,4095.0,1325.0,1624.0
4019.0,4035.0,4018.0,4095.0,1371.0,3597.0
3989.0,4035.0,4018.0,4095.0,1371.0,3597.0
3989.0,3979.0,4014.0,4095.0,1357.0,3597.0
3989.0,3979.0,4014.0,4095.0,1357.0,4011.0
3989.0,3979.0,4014.0,4095.0,1357.0,4011.0
3999.0,3979.0,4014.0,4095.0,1357.0,4011.0
3999.0,3990.0,4018.0,4095.0,1329.0,3081.0
4031.0,3990.0,4018.0,4095.0,1329.0,3081.0
4031.0,4007.0,4015.0,4095.0,1314.0,2576.0
4002.0,4007.0,4015.0,4095.0,1314.0,2576.0
4002.0,4007.0,4015.0,4095.0,1314.0,2576.0
4002.0,3988.0,4004.0,4095.0,1314.0,2576.0
4002.0,3988.0,4004.0,4095.0,1310.0,2359.0
4016.0,3988.0,4004.0,4095.0,1310.0,2359.0
4016.0,4075.0,4015.0,4095.0,1296.0,2005.0
4030.0,4075.0,4015.0,4095.0,1296.0,2005.0
4030.0,4025.0,4023.0,4095.0,1280.0,1769.0
4030.0,4025.0,4023.0,4095.0,1280.0,1769.0
3990.0,4025.0,4023.0,4095.0,1280.0,1769.0
3990.0,4011.0,4010.0,4095.0,1279.0,1743.0
3999.0,4011.0,4010.0,4095.0,1279.0,1743.0
3999.0,3997.0,4014.0,4095.0,1281.0,1669.0
4038.0,3997.0,4014.0,4095.0,1281.0,1669.0
4038.0,3997.0,4023.0,4095.0,1283.0,1611.0
4038.0,3997.0,4023.0,4095.0,1283.0,1611.0
4038.0,3997.0,4023.0,4095.0,1283.0,1611.0
4043.0,3997.0,4023.0,4095.0,1283.0,1611.0
4043.0,4001.0,4007.0,4095.0,1285.0,1506.0
4031.0,4001.0,4007.0,4095.0,1285.0,1506.0
4031.0,4005.0,3999.0,4095.0,1278.0,1340.0
4031.0,4005.0,3999.0,4095.0,1278.0,1340.0
4031.0,4005.0,3999.0,4095.0,1278.0,1340.0
4021.0,4044.0,4032.0,4095.0,1282.0,1298.0
4021.0,4044.0,4032.0,4095.0,1282.0,1298.0
4016.0,4044.0,4032.0,4095.0,1282.0,1298.0
0.0,0.0,0.0,0.0,0.0,0.0
0.0,0.0,0.0,0.0,0.0,0.0
0.0,0.0,0.0,0.0,0.0,0.0
0.0,0.0,0.0,0.0,0.0,0.0
0.0,0.0,0.0,0.0,0.0,0.0
0.0,0.0,0.0,0.0,0.0,0.0
0.0,0.0,0.0,0.0,0.0,0.0
0.0,0.0,0.0,0.0,0.0,0.0
0.0,0.0,0.0,0.0,0.0,0.0
0.0,0.0,0.0,0.0,0.0,0.0
0.0,0.0,0.0,0.0,0.0,0.0
0.0,0.0,0.0,0.0,0.0,0.0
0.0,0.0,0.0,0.0,0.0,0.0
0.0,0.0,0.0,0.0,0.0,0.0
0.0,0.0,0.0,0.0,0.0,0.0
0.0,0.0,0.0,0.0,0.0,0.0
0.0,0.0,0.0,0.0,0.0,0.0
0.0,0.0,0.0,0.0,0.0,0.0
0.0,0.0,0.0,0.0,0.0,0.0
0.0,0.0,0.0,0.0,0.0,0.0
0.0,0.0,0.0,0.0,0.0,0.0
0.0,0.0,0.0,0.0,0.0,0.0
0.0,0.0,0.0,0.0,0.0,0.0
0.0,0.0,0.0,0.0,0.0,0.0
0.0,0.0,0.0,0.0,0.0,0.0
0.0,0.0,0.0,0.0,0.0,0.0
0.0,0.0,0.0,0.0,0.0,0.0
0.0,0.0,0.0,0.0,0.0,0.0
0.0,0.0,0.0,0.0,0.0,0.0
0.0,0.0,0.0,0.0,0.0,0.0
0.0,0.0,0.0,0.0,0.0,0.0
0.0,0.0,0.0,0.0,0.0,0.0
0.0,0.0,0.0,0.0,0.0,0.0
0.0,0.0,0.0,0.0,0.0,0.0
0.0,0.0,0.0,0.0,0.0,0.0
0.0,0.0,0.0,0.0,0.0,0.0
0.0,0.0,0.0,0.0,0.0,0.0
0.0,0.0,0.0,0.0,0.0,0.0
0.0,0.0,0.0,0.0,0.0,0.0
0.0,0.0,0.0,0.0,0.0,0.0
0.0,0.0,0.0,0.0,0.0,0.0
0.0,0.0,0.0,0.0,0.0,0.0
0.0,0.0,0.0,0.0,0.0,0.0
0.0,0.0,0.0,0.0,0.0,0.0
0.0,0.0,0.0,0.0,0.0,0.0
0.0,0.0,0.0,0.0,0.0,0.0
0.0,0.0,0.0,0.0,0.0,0.0
0.0,0.0,0.0,0.0,0.0,0.0
0.0,0.0,0.0,0.0,0.0,0.0
0.0,0.0,0.0,0.0,0.0,0.0
0.0,0.0,0.0,0.0,0.0,0.0
0.0,0.0,0.0,0.0,0.0,0.0
0.0,0.0,0.0,0.0,0.0,0.0
0.0,0.0,0.0,0.0,0.0,0.0
0.0,0.0,0.0,0.0,0.0,0.0
0.0,0.0,0.0,0.0,0.0,0.0
0.0,0.0,0.0,0.0,0.0,0.0
0.0,0.0,0.0,0.0,0.0,0.0
0.0,0.0,0.0,0.0,0.0,0.0
0.0,0.0,0.0,0.0,0.0,0.0
0.0,0.0,0.0,0.0,0.0,0.0
0.0,0.0,0.0,0.0,0.0,0.0
0.0,0.0,0.0,0.0,0.0,0.0
0.0,0.0,0.0,0.0,0.0,0.0
0.0,0.0,0.0,0.0,0.0,0.0
0.0,0.0,0.0,0.0,0.0,0.0
0.0,0.0,0.0,0.0,0.0,0.0
0.0,0.0,0.0,0.0,0.0,0.0
0.0,0.0,0.0,0.0,0.0,0.0
0.0,0.0,0.0,0.0,0.0,0.0
0.0,0.0,0.0,0.0,0.0,0.0
0.0,0.0,0.0,0.0,0.0,0.0
0.0,0.0,0.0,0.0,0.0,0.0
0.0,0.0,0.0,0.0,0.0,0.0
0.0,0.0,0.0,0.0,0.0,0.0
0.0,0.0,0.0,0.0,0.0,0.0
0.0,0.0,0.0,0.0,0.0,0.0
0.0,0.0,0.0,0.0,0.0,0.0
0.0,0.0,0.0,0.0,0.0,0.0
0.0,0.0,0.0,0.0,0.0,0.0
0.0,0.0,0.0,0.0,0.0,0.0
0.0,0.0,0.0,0.0,0.0,0.0
0.0,0.0,0.0,0.0,0.0,0.0
0.0,0.0,0.0,0.0,0.0,0.0
0.0,0.0,0.0,0.0,0.0,0.0
0.0,0.0,0.0,0.0,0.0,0.0
0.0,0.0,0.0,0.0,0.0,0.0
0.0,0.0,0.0,0.0,0.0,0.0
0.0,0.0,0.0,0.0,0.0,0.0
0.0,0.0,0.0,0.0,0.0,0.0
0.0,0.0,0.0,0.0,0.0,0.0
0.0,0.0,0.0,0.0,0.0,0.0
0.0,0.0,0.0,0.0,0.0,0.0
0.0,0.0,0.0,0.0,0.0,0.0
0.0,0.0,0.0,0.0,0.0,0.0
0.0,0.0,0.0,0.0,0.0,0.0
0.0,0.0,0.0,0.0,0.0,0.0
0.0,0.0,0.0,0.0,0.0,0.0
0.0,0.0,0.0,0.0,0.0,0.0
0.0,0.0,0.0,0.0,0.0,0.0
0.0,0.0,0.0,0.0,0.0,0.0
0.0,0.0,0.0,0.0,0.0,0.0
0.0,0.0,0.0,0.0,0.0,0.0
0.0,0.0,0.0,0.0,0.0,0.0
0.0,0.0,0.0,0.0,0.0,0.0
0.0,0.0,0.0,0.0,0.0,0.0
0.0,0.0,0.0,0.0,0.0,0.0
0.0,0.0,0.0,0.0,0.0,0.0
0.0,0.0,0.0,0.0,0.0,0.0
0.0,0.0,0.0,0.0,0.0,0.0
0.0,0.0,0.0,0.0,0.0,0.0
0.0,0.0,0.0,0.0,0.0,0.0
0.0,0.0,0.0,0.0,0.0,0.0
0.0,0.0,0.0,0.0,0.0,0.0
0.0,0.0,0.0,0.0,0.0,0.0
0.0,0.0,0.0,0.0,0.0,0.0
0.0,0.0,0.0,0.0,0.0,0.0
0.0,0.0,0.0,0.0,0.0,0.0
0.0,0.0,0.0,0.0,0.0,0.0
0.0,0.0,0.0,0.0,0.0,0.0
0.0,0.0,0.0,0.0,0.0,0.0
0.0,0.0,0.0,0.0,0.0,0.0
0.0,0.0,0.0,0.0,0.0,0.0
0.0,0.0,0.0,0.0,0.0,0.0
0.0,0.0,0.0,0.0,0.0,0.0
0.0,0.0,0.0,0.0,0.0,0.0
0.0,0.0,0.0,0.0,0.0,0.0
0.0,0.0,0.0,0.0,0.0,0.0
0.0,0.0,0.0,0.0,0.0,0.0
0.0,0.0,0.0,0.0,0.0,0.0
0.0,0.0,0.0,0.0,0.0,0.0
0.0,0.0,0.0,0.0,0.0,0.0
0.0,0.0,0.0,0.0,0.0,0.0
0.0,0.0,0.0,0.0,0.0,0.0
0.0,0.0,0.0,0.0,0.0,0.0
0.0,0.0,0.0,0.0,0.0,0.0
0.0,0.0,0.0,0.0,0.0,0.0
0.0,0.0,0.0,0.0,0.0,0.0
0.0,0.0,0.0,0.0,0.0,0.0
0.0,0.0,0.0,0.0,0.0,0.0
0.0,0.0,0.0,0.0,0.0,0.0
0.0,0.0,0.0,0.0,0.0,0.0
0.0,0.0,0.0,0.0,0.0,0.0
0.0,0.0,0.0,0.0,0.0,0.0
0.0,0.0,0.0,0.0,0.0,0.0
0.0,0.0,0.0,0.0,0.0,0.0
0.0,0.0,0.0,0.0,0.0,0.0
0.0,0.0,0.0,0.0,0.0,0.0
0.0,0.0,0.0,0.0,0.0,0.0
0.0,0.0,0.0,0.0,0.0,0.0
0.0,0.0,0.0,0.0,0.0,0.0
0.0,0.0,0.0,0.0,0.0,0.0
0.0,0.0,0.0,0.0,0.0,0.0
0.0,0.0,0.0,0.0,0.0,0.0
0.0,0.0,0.0,0.0,0.0,0.0
0.0,0.0,0.0,0.0,0.0,0.0
0.0,0.0,0.0,0.0,0.0,0.0
0.0,0.0,0.0,0.0,0.0,0.0
0.0,0.0,0.0,0.0,0.0,0.0
0.0,0.0,0.0,0.0,0.0,0.0
0.0,0.0,0.0,0.0,0.0,0.0
0.0,0.0,0.0,0.0,0.0,0.0
0.0,0.0,0.0,0.0,0.0,0.0
0.0,0.0,0.0,0.0,0.0,0.0
0.0,0.0,0.0,0.0,0.0,0.0
0.0,0.0,0.0,0.0,0.0,0.0
0.0,0.0,0.0,0.0,0.0,0.0
0.0,0.0,0.0,0.0,0.0,0.0
0.0,0.0,0.0,0.0,0.0,0.0
0.0,0.0,0.0,0.0,0.0,0.0
0.0,0.0,0.0,0.0,0.0,0.0
0.0,0.0,0.0,0.0,0.0,0.0
0.0,0.0,0.0,0.0,0.0,0.0
0.0,0.0,0.0,0.0,0.0,0.0
0.0,0.0,0.0,0.0,0.0,0.0
0.0,0.0,0.0,0.0,0.0,0.0
0.0,0.0,0.0,0.0,0.0,0.0
0.0,0.0,0.0,0.0,0.0,0.0
0.0,0.0,0.0,0.0,0.0,0.0
0.0,0.0,0.0,0.0,0.0,0.0
0.0,0.0,0.0,0.0,0.0,0.0
0.0,0.0,0.0,0.0,0.0,0.0
0.0,0.0,0.0,0.0,0.0,0.0
0.0,0.0,0.0,0.0,0.0,0.0
0.0,0.0,0.0,0.0,0.0,0.0
0.0,0.0,0.0,0.0,0.0,0.0
0.0,0.0,0.0,0.0,0.0,0.0
0.0,0.0,0.0,0.0,0.0,0.0
0.0,0.0,0.0,0.0,0.0,0.0
0.0,0.0,0.0,0.0,0.0,0.0
0.0,0.0,0.0,0.0,0.0,0.0
0.0,0.0,0.0,0.0,0.0,0.0
0.0,0.0,0.0,0.0,0.0,0.0
0.0,0.0,0.0,0.0,0.0,0.0
0.0,0.0,0.0,0.0,0.0,0.0
0.0,0.0,0.0,0.0,0.0,0.0
0.0,0.0,0.0,0.0,0.0,0.0
0.0,0.0,0.0,0.0,0.0,0.0
0.0,0.0,0.0,0.0,0.0,0.0
0.0,0.0,0.0,0.0,0.0,0.0
0.0,0.0,0.0,0.0,0.0,0.0
0.0,0.0,0.0,0.0,0.0,0.0
0.0,0.0,0.0,0.0,0.0,0.0
0.0,0.0,0.0,0.0,0.0,0.0
0.0,0.0,0.0,0.0,0.0,0.0
0.0,0.0,0.0,0.0,0.0,0.0
0.0,0.0,0.0,0.0,0.0,0.0
0.0,0.0,0.0,0.0,0.0,0.0
0.0,0.0,0.0,0.0,0.0,0.0
0.0,0.0,0.0,0.0,0.0,0.0
0.0,0.0,0.0,0.0,0.0,0.0
0.0,0.0,0.0,0.0,0.0,0.0
0.0,0.0,0.0,0.0,0.0,0.0
0.0,0.0,0.0,0.0,0.0,0.0
0.0,0.0,0.0,0.0,0.0,0.0
0.0,0.0,0.0,0.0,0.0,0.0
0.0,0.0,0.0,0.0,0.0,0.0
0.0,0.0,0.0,0.0,0.0,0.0
0.0,0.0,0.0,0.0,0.0,0.0
0.0,0.0,0.0,0.0,0.0,0.0
0.0,0.0,0.0,0.0,0.0,0.0
0.0,0.0,0.0,0.0,0.0,0.0
0.0,0.0,0.0,0.0,0.0,0.0
0.0,0.0,0.0,0.0,0.0,0.0
0.0,0.0,0.0,0.0,0.0,0.0
0.0,0.0,0.0,0.0,0.0,0.0
0.0,0.0,0.0,0.0,0.0,0.0
0.0,0.0,0.0,0.0,0.0,0.0
0.0,0.0,0.0,0.0,0.0,0.0
0.0,0.0,0.0,0.0,0.0,0.0
0.0,0.0,0.0,0.0,0.0,0.0
0.0,0.0,0.0,0.0,0.0,0.0
0.0,0.0,0.0,0.0,0.0,0.0
0.0,0.0,0.0,0.0,0.0,0.0
0.0,0.0,0.0,0.0,0.0,0.0
0.0,0.0,0.0,0.0,0.0,0.0
0.0,0.0,0.0,0.0,0.0,0.0
0.0,0.0,0.0,0.0,0.0,0.0
0.0,0.0,0.0,0.0,0.0,0.0
0.0,0.0,0.0,0.0,0.0,0.0
0.0,0.0,0.0,0.0,0.0,0.0
0.0,0.0,0.0,0.0,0.0,0.0
0.0,0.0,0.0,0.0,0.0,0.0
0.0,0.0,0.0,0.0,0.0,0.0
0.0,0.0,0.0,0.0,0.0,0.0
0.0,0.0,0.0,0.0,0.0,0.0
0.0,0.0,0.0,0.0,0.0,0.0
0.0,0.0,0.0,0.0,0.0,0.0
0.0,0.0,0.0,0.0,0.0,0.0
0.0,0.0,0.0,0.0,0.0,0.0
0.0,0.0,0.0,0.0,0.0,0.0
0.0,0.0,0.0,0.0,0.0,0.0
0.0,0.0,0.0,0.0,0.0,0.0
0.0,0.0,0.0,0.0,0.0,0.0
0.0,0.0,0.0,0.0,0.0,0.0
0.0,0.0,0.0,0.0,0.0,0.0
0.0,0.0,0.0,0.0,0.0,0.0
0.0,0.0,0.0,0.0,0.0,0.0
0.0,0.0,0.0,0.0,0.0,0.0
0.0,0.0,0.0,0.0,0.0,0.0
0.0,0.0,0.0,0.0,0.0,0.0
0.0,0.0,0.0,0.0,0.0,0.0
0.0,0.0,0.0,0.0,0.0,0.0
0.0,0.0,0.0,0.0,0.0,0.0
0.0,0.0,0.0,0.0,0.0,0.0
0.0,0.0,0.0,0.0,0.0,0.0
0.0,0.0,0.0,0.0,0.0,0.0
0.0,0.0,0.0,0.0,0.0,0.0
0.0,0.0,0.0,0.0,0.0,0.0
0.0,0.0,0.0,0.0,0.0,0.0
0.0,0.0,0.0,0.0,0.0,0.0
0.0,0.0,0.0,0.0,0.0,0.0
0.0,0.0,0.0,0.0,0.0,0.0
0.0,0.0,0.0,0.0,0.0,0.0
0.0,0.0,0.0,0.0,0.0,0.0
0.0,0.0,0.0,0.0,0.0,0.0
0.0,0.0,0.0,0.0,0.0,0.0
0.0,0.0,0.0,0.0,0.0,0.0
0.0,0.0,0.0,0.0,0.0,0.0
0.0,0.0,0.0,0.0,0.0,0.0
0.0,0.0,0.0,0.0,0.0,0.0
0.0,0.0,0.0,0.0,0.0,0.0
0.0,0.0,0.0,0.0,0.0,0.0
0.0,0.0,0.0,0.0,0.0,0.0
0.0,0.0,0.0,0.0,0.0,0.0
0.0,0.0,0.0,0.0,0.0,0.0
0.0,0.0,0.0,0.0,0.0,0.0
0.0,0.0,0.0,0.0,0.0,0.0
0.0,0.0,0.0,0.0,0.0,0.0
0.0,0.0,0.0,0.0,0.0,0.0
0.0,0.0,0.0,0.0,0.0,0.0
0.0,0.0,0.0,0.0,0.0,0.0
0.0,0.0,0.0,0.0,0.0,0.0
0.0,0.0,0.0,0.0,0.0,0.0
0.0,0.0,0.0,0.0,0.0,0.0
0.0,0.0,0.0,0.0,0.0,0.0
0.0,0.0,0.0,0.0,0.0,0.0
0.0,0.0,0.0,0.0,0.0,0.0
0.0,0.0,0.0,0.0,0.0,0.0
0.0,0.0,0.0,0.0,0.0,0.0
0.0,0.0,0.0,0.0,0.0,0.0
0.0,0.0,0.0,0.0,0.0,0.0
0.0,0.0,0.0,0.0,0.0,0.0
0.0,0.0,0.0,0.0,0.0,0.0
0.0,0.0,0.0,0.0,0.0,0.0
0.0,0.0,0.0,0.0,0.0,0.0
0.0,0.0,0.0,0.0,0.0,0.0
0.0,0.0,0.0,0.0,0.0,0.0
0.0,0.0,0.0,0.0,0.0,0.0
0.0,0.0,0.0,0.0,0.0,0.0
0.0,0.0,0.0,0.0,0.0,0.0
0.0,0.0,0.0,0.0,0.0,0.0
0.0,0.0,0.0,0.0,0.0,0.0
0.0,0.0,0.0,0.0,0.0,0.0
0.0,0.0,0.0,0.0,0.0,0.0
0.0,0.0,0.0,0.0,0.0,0.0
0.0,0.0,0.0,0.0,0.0,0.0
0.0,0.0,0.0,0.0,0.0,0.0
0.0,0.0,0.0,0.0,0.0,0.0
0.0,0.0,0.0,0.0,0.0,0.0
0.0,0.0,0.0,0.0,0.0,0.0
0.0,0.0,0.0,0.0,0.0,0.0
0.0,0.0,0.0,0.0,0.0,0.0
0.0,0.0,0.0,0.0,0.0,0.0
0.0,0.0,0.0,0.0,0.0,0.0
0.0,0.0,0.0,0.0,0.0,0.0
0.0,0.0,0.0,0.0,0.0,0.0
0.0,0.0,0.0,0.0,0.0,0.0
0.0,0.0,0.0,0.0,0.0,0.0
0.0,0.0,0.0,0.0,0.0,0.0
0.0,0.0,0.0,0.0,0.0,0.0
0.0,0.0,0.0,0.0,0.0,0.0
0.0,0.0,0.0,0.0,0.0,0.0
0.0,0.0,0.0,0.0,0.0,0.0
0.0,0.0,0.0,0.0,0.0,0.0
0.0,0.0,0.0,0.0,0.0,0.0
0.0,0.0,0.0,0.0,0.0,0.0
0.0,0.0,0.0,0.0,0.0,0.0
0.0,0.0,0.0,0.0,0.0,0.0
0.0,0.0,0.0,0.0,0.0,0.0
0.0,0.0,0.0,0.0,0.0,0.0
0.0,0.0,0.0,0.0,0.0,0.0
0.0,0.0,0.0,0.0,0.0,0.0
0.0,0.0,0.0,0.0,0.0,0.0
0.0,0.0,0.0,0.0,0.0,0.0
0.0,0.0,0.0,0.0,0.0,0.0
0.0,0.0,0.0,0.0,0.0,0.0
0.0,0.0,0.0,0.0,0.0,0.0
0.0,0.0,0.0,0.0,0.0,0.0
0.0,0.0,0.0,0.0,0.0,0.0
0.0,0.0,0.0,0.0,0.0,0.0
0.0,0.0,0.0,0.0,0.0,0.0
0.0,0.0,0.0,0.0,0.0,0.0
0.0,0.0,0.0,0.0,0.0,0.0
0.0,0.0,0.0,0.0,0.0,0.0
0.0,0.0,0.0,0.0,0.0,0.0
0.0,0.0,0.0,0.0,0.0,0.0
0.0,0.0,0.0,0.0,0.0,0.0
0.0,0.0,0.0,0.0,0.0,0.0
0.0,0.0,0.0,0.0,0.0,0.0
0.0,0.0,0.0,0.0,0.0,0.0
0.0,0.0,0.0,0.0,0.0,0.0
0.0,0.0,0.0,0.0,0.0,0.0
0.0,0.0,0.0,0.0,0.0,0.0
0.0,0.0,0.0,0.0,0.0,0.0
0.0,0.0,0.0,0.0,0.0,0.0
0.0,0.0,0.0,0.0,0.0,0.0
0.0,0.0,0.0,0.0,0.0,0.0
0.0,0.0,0.0,0.0,0.0,0.0
0.0,0.0,0.0,0.0,0.0,0.0
0.0,0.0,0.0,0.0,0.0,0.0
0.0,0.0,0.0,0.0,0.0,0.0
0.0,0.0,0.0,0.0,0.0,0.0
0.0,0.0,0.0,0.0,0.0,0.0
0.0,0.0,0.0,0.0,0.0,0.0
0.0,0.0,0.0,0.0,0.0,0.0
0.0,0.0,0.0,0.0,0.0,0.0
0.0,0.0,0.0,0.0,0.0,0.0
0.0,0.0,0.0,0.0,0.0,0.0
0.0,0.0,0.0,0.0,0.0,0.0
0.0,0.0,0.0,0.0,0.0,0.0
0.0,0.0,0.0,0.0,0.0,0.0
0.0,0.0,0.0,0.0,0.0,0.0
0.0,0.0,0.0,0.0,0.0,0.0
0.0,0.0,0.0,0.0,0.0,0.0
0.0,0.0,0.0,0.0,0.0,0.0
0.0,0.0,0.0,0.0,0.0,0.0
0.0,0.0,0.0,0.0,0.0,0.0
0.0,0.0,0.0,0.0,0.0,0.0
0.0,0.0,0.0,0.0,0.0,0.0
0.0,0.0,0.0,0.0,0.0,0.0
0.0,0.0,0.0,0.0,0.0,0.0
0.0,0.0,0.0,0.0,0.0,0.0
0.0,0.0,0.0,0.0,0.0,0.0
0.0,0.0,0.0,0.0,0.0,0.0
0.0,0.0,0.0,0.0,0.0,0.0
0.0,0.0,0.0,0.0,0.0,0.0
0.0,0.0,0.0,0.0,0.0,0.0
0.0,0.0,0.0,0.0,0.0,0.0
0.0,0.0,0.0,0.0,0.0,0.0
0.0,0.0,0.0,0.0,0.0,0.0
0.0,0.0,0.0,0.0,0.0,0.0
0.0,0.0,0.0,0.0,0.0,0.0
0.0,0.0,0.0,0.0,0.0,0.0
0.0,0.0,0.0,0.0,0.0,0.0
0.0,0.0,0.0,0.0,0.0,0.0
0.0,0.0,0.0,0.0,0.0,0.0
0.0,0.0,0.0,0.0,0.0,0.0
0.0,0.0,0.0,0.0,0.0,0.0
0.0,0.0,0.0,0.0,0.0,0.0
0.0,0.0,0.0,0.0,0.0,0.0
0.0,0.0,0.0,0.0,0.0,0.0
0.0,0.0,0.0,0.0,0.0,0.0
0.0,0.0,0.0,0.0,0.0,0.0
0.0,0.0,0.0,0.0,0.0,0.0
0.0,0.0,0.0,0.0,0.0,0.0
0.0,0.0,0.0,0.0,0.0,0.0
0.0,0.0,0.0,0.0,0.0,0.0
0.0,0.0,0.0,0.0,0.0,0.0
0.0,0.0,0.0,0.0,0.0,0.0
0.0,0.0,0.0,0.0,0.0,0.0
0.0,0.0,0.0,0.0,0.0,0.0
0.0,0.0,0.0,0.0,0.0,0.0
0.0,0.0,0.0,0.0,0.0,0.0
0.0,0.0,0.0,0.0,0.0,0.0
0.0,0.0,0.0,0.0,0.0,0.0
0.0,0.0,0.0,0.0,0.0,0.0
0.0,0.0,0.0,0.0,0.0,0.0
0.0,0.0,0.0,0.0,0.0,0.0
0.0,0.0,0.0,0.0,0.0,0.0
0.0,0.0,0.0,0.0,0.0,0.0
0.0,0.0,0.0,0.0,0.0,0.0
0.0,0.0,0.0,0.0,0.0,0.0
0.0,0.0,0.0,0.0,0.0,0.0
0.0,0.0,0.0,0.0,0.0,0.0
0.0,0.0,0.0,0.0,0.0,0.0
0.0,0.0,0.0,0.0,0.0,0.0
0.0,0.0,0.0,0.0,0.0,0.0
0.0,0.0,0.0,0.0,0.0,0.0
0.0,0.0,0.0,0.0,0.0,0.0
0.0,0.0,0.0,0.0,0.0,0.0
0.0,0.0,0.0,0.0,0.0,0.0
0.0,0.0,0.0,0.0,0.0,0.0
0.0,0.0,0.0,0.0,0.0,0.0
0.0,0.0,0.0,0.0,0.0,0.0
0.0,0.0,0.0,0.0,0.0,0.0
0.0,0.0,0.0,0.0,0.0,0.0
0.0,0.0,0.0,0.0,0.0,0.0
0.0,0.0,0.0,0.0,0.0,0.0
0.0,0.0,0.0,0.0,0.0,0.0
0.0,0.0,0.0,0.0,0.0,0.0
0.0,0.0,0.0,0.0,0.0,0.0
0.0,0.0,0.0,0.0,0.0,0.0
0.0,0.0,0.0,0.0,0.0,0.0
0.0,0.0,0.0,0.0,0.0,0.0
0.0,0.0,0.0,0.0,0.0,0.0
0.0,0.0,0.0,0.0,0.0,0.0
0.0,0.0,0.0,0.0,0.0,0.0
0.0,0.0,0.0,0.0,0.0,0.0
0.0,0.0,0.0,0.0,0.0,0.0
0.0,0.0,0.0,0.0,0.0,0.0
0.0,0.0,0.0,0.0,0.0,0.0
0.0,0.0,0.0,0.0,0.0,0.0
0.0,0.0,0.0,0.0,0.0,0.0
0.0,0.0,0.0,0.0,0.0,0.0
0.0,0.0,0.0,0.0,0.0,0.0
0.0,0.0,0.0,0.0,0.0,0.0
0.0,0.0,0.0,0.0,0.0,0.0
0.0,0.0,0.0,0.0,0.0,0.0
0.0,0.0,0.0,0.0,0.0,0.0
0.0,0.0,0.0,0.0,0.0,0.0
0.0,0.0,0.0,0.0,0.0,0.0
0.0,0.0,0.0,0.0,0.0,0.0
0.0,0.0,0.0,0.0,0.0,0.0
0.0,0.0,0.0,0.0,0.0,0.0
0.0,0.0,0.0,0.0,0.0,0.0
0.0,0.0,0.0,0.0,0.0,0.0
0.0,0.0,0.0,0.0,0.0,0.0
0.0,0.0,0.0,0.0,0.0,0.0
0.0,0.0,0.0,0.0,0.0,0.0
0.0,0.0,0.0,0.0,0.0,0.0
0.0,0.0,0.0,0.0,0.0,0.0
0.0,0.0,0.0,0.0,0.0,0.0
0.0,0.0,0.0,0.0,0.0,0.0
0.0,0.0,0.0,0.0,0.0,0.0
0.0,0.0,0.0,0.0,0.0,0.0
0.0,0.0,0.0,0.0,0.0,0.0
0.0,0.0,0.0,0.0,0.0,0.0
0.0,0.0,0.0,0.0,0.0,0.0
0.0,0.0,0.0,0.0,0.0,0.0
0.0,0.0,0.0,0.0,0.0,0.0
0.0,0.0,0.0,0.0,0.0,0.0
0.0,0.0,0.0,0.0,0.0,0.0
0.0,0.0,0.0,0.0,0.0,0.0
0.0,0.0,0.0,0.0,0.0,0.0
0.0,0.0,0.0,0.0,0.0,0.0
0.0,0.0,0.0,0.0,0.0,0.0
0.0,0.0,0.0,0.0,0.0,0.0
0.0,0.0,0.0,0.0,0.0,0.0
0.0,0.0,0.0,0.0,0.0,0.0
0.0,0.0,0.0,0.0,0.0,0.0
0.0,0.0,0.0,0.0,0.0,0.0
0.0,0.0,0.0,0.0,0.0,0.0
0.0,0.0,0.0,0.0,0.0,0.0
0.0,0.0,0.0,0.0,0.0,0.0
0.0,0.0,0.0,0.0,0.0,0.0
0.0,0.0,0.0,0.0,0.0,0.0
0.0,0.0,0.0,0.0,0.0,0.0
0.0,0.0,0.0,0.0,0.0,0.0
0.0,0.0,0.0,0.0,0.0,0.0
0.0,0.0,0.0,0.0,0.0,0.0
0.0,0.0,0.0,0.0,0.0,0.0
0.0,0.0,0.0,0.0,0.0,0.0
0.0,0.0,0.0,0.0,0.0,0.0
0.0,0.0,0.0,0.0,0.0,0.0
0.0,0.0,0.0,0.0,0.0,0.0
0.0,0.0,0.0,0.0,0.0,0.0
0.0,0.0,0.0,0.0,0.0,0.0
0.0,0.0,0.0,0.0,0.0,0.0
0.0,0.0,0.0,0.0,0.0,0.0
0.0,0.0,0.0,0.0,0.0,0.0
0.0,0.0,0.0,0.0,0.0,0.0
0.0,0.0,0.0,0.0,0.0,0.0
0.0,0.0,0.0,0.0,0.0,0.0
0.0,0.0,0.0,0.0,0.0,0.0
0.0,0.0,0.0,0.0,0.0,0.0
0.0,0.0,0.0,0.0,0.0,0.0
0.0,0.0,0.0,0.0,0.0,0.0
678.0,640.0,209.0,4095.0,1339.0,253.0
678.0,640.0,209.0,4095.0,1348.0,193.0
600.0,573.0,209.0,4095.0,1348.0,193.0
600.0,573.0,155.0,4095.0,1352.0,211.0
528.0,573.0,155.0,4095.0,1352.0,211.0
528.0,499.0,133.0,4095.0,1347.0,177.0
550.0,494.0,133.0,4095.0,1347.0,177.0
550.0,494.0,139.0,4095.0,1330.0,177.0
599.0,461.0,176.0,4095.0,1330.0,177.0
599.0,461.0,176.0,4095.0,1336.0,205.0
599.0,461.0,176.0,4095.0,1336.0,205.0
643.0,461.0,141.0,4095.0,1336.0,205.0
643.0,442.0,141.0,4095.0,1345.0,216.0
720.0,403.0,141.0,4095.0,1345.0,216.0
720.0,403.0,145.0,4095.0,1348.0,214.0
775.0,386.0,145.0,4095.0,1348.0,214.0
775.0,386.0,154.0,4095.0,1354.0,187.0
816.0,384.0,113.0,4095.0,1354.0,187.0
816.0,384.0,113.0,4095.0,1356.0,187.0
821.0,352.0,113.0,4095.0,1356.0,205.0
821.0,352.0,142.0,4095.0,1356.0,205.0
816.0,346.0,142.0,4095.0,1351.0,236.0
816.0,346.0,128.0,4095.0,1351.0,236.0
816.0,346.0,128.0,4095.0,1360.0,192.0
835.0,316.0,128.0,4095.0,1360.0,192.0
835.0,316.0,128.0,4095.0,1354.0,183.0
839.0,293.0,114.0,4095.0,1354.0,183.0
839.0,293.0,114.0,4095.0,1355.0,195.0
815.0,240.0,138.0,4095.0,1367.0,240.0
823.0,212.0,138.0,4095.0,1367.0,240.0
823.0,212.0,107.0,4095.0,1367.0,261.0
823.0,212.0,107.0,4095.0,1367.0,261.0
823.0,212.0,107.0,4095.0,1367.0,261.0
816.0,184.0,145.0,4095.0,1366.0,273.0
798.0,141.0,130.0,4095.0,1375.0,273.0
798.0,141.0,130.0,4095.0,1375.0,285.0
690.0,101.0,208.0,4095.0,1363.0,298.0
638.0,101.0,208.0,4095.0,1363.0,298.0
638.0,47.0,185.0,4095.0,1379.0,473.0
505.0,26.0,185.0,4095.0,1379.0,473.0
505.0,26.0,290.0,4095.0,1393.0,834.0
505.0,26.0,290.0,4095.0,1393.0,834.0
505.0,26.0,290.0,4095.0,1393.0,834.0
555.0,2815.0,246.0,4095.0,1393.0,834.0
555.0,2815.0,246.0,4095.0,1381.0,1282.0
4017.0,4016.0,246.0,4095.0,1381.0,1282.0
4017.0,4016.0,584.0,4095.0,1391.0,1630.0
4018.0,3999.0,1522.0,4095.0,1383.0,1942.0
4018.0,3999.0,1522.0,4095.0,1383.0,1942.0
4018.0,3999.0,1522.0,4095.0,1383.0,1942.0
3997.0,4059.0,1447.0,4095.0,1377.0,1942.0
4016.0,4014.0,1147.0,4095.0,1377.0,2199.0
4016.0,4014.0,1147.0,4095.0,1363.0,2366.0
4031.0,4014.0,1147.0,4095.0,1363.0,2366.0
4031.0,4011.0,864.0,4095.0,1359.0,2359.0
4031.0,4011.0,864.0,4095.0,1359.0,2359.0
3179.0,2995.0,864.0,4095.0,1359.0,2359.0
3179.0,2995.0,672.0,4095.0,1358.0,2395.0
2640.0,3998.0,672.0,4095.0,1358.0,2395.0
2640.0,3998.0,571.0,4095.0,1347.0,2242.0
2640.0,3998.0,571.0,4095.0,1347.0,2242.0
3741.0,3998.0,571.0,4095.0,1347.0,2242.0
3741.0,4017.0,670.0,4095.0,1323.0,1925.0
3971.0,4027.0,670.0,4095.0,1323.0,1925.0
3971.0,4027.0,727.0,4095.0,1307.0,1495.0
3597.0,3983.0,727.0,4095.0,1307.0,1495.0
3597.0,3983.0,614.0,4095.0,1312.0,1022.0
3137.0,4033.0,614.0,4095.0,1312.0,1022.0
3137.0,4033.0,420.0,4095.0,1275.0,711.0
3137.0,4033.0,420.0,4095.0,1275.0,711.0
3137.0,4033.0,420.0,4095.0,1275.0,711.0
4003.0,4014.0,614.0,4095.0,1277.0,534.0
4023.0,4004.0,614.0,4095.0,1277.0,534.0
4023.0,4004.0,4041.0,4095.0,1295.0,669.0
4027.0,3981.0,4041.0,4095.0,1295.0,669.0
4027.0,3981.0,4031.0,4095.0,1296.0,989.0
4027.0,3981.0,4031.0,4095.0,1296.0,989.0
4027.0,3981.0,4031.0,4095.0,1296.0,989.0
4014.0,4016.0,4019.0,4095.0,1297.0,989.0
4014.0,4016.0,4019.0,4095.0,1297.0,1428.0
4003.0,3998.0,4011.0,4095.0,1297.0,1428.0
4003.0,3998.0,4011.0,4095.0,1297.0,1428.0
4003.0,3998.0,4011.0,4095.0,1313.0,1428.0
3982.0,3470.0,4011.0,4095.0,1313.0,1802.0
3982.0,3470.0,2547.0,4095.0,1313.0,1802.0
3982.0,3470.0,2547.0,4095.0,1317.0,2054.0
4031.0,3470.0,2547.0,4095.0,1317.0,2054.0
4031.0,2217.0,2313.0,4095.0,1307.0,2079.0
4021.0,3430.0,2313.0,4095.0,1307.0,2079.0
4021.0,3430.0,1749.0,4095.0,1291.0,1665.0
3991.0,4023.0,1749.0,4095.0,1291.0,1665.0
3991.0,4023.0,2235.0,4095.0,1303.0,1366.0
3991.0,4023.0,2235.0,4095.0,1303.0,1366.0
3991.0,4023.0,2235.0,4095.0,1303.0,1366.0
4016.0,4058.0,2719.0,4095.0,1283.0,1207.0
4016.0,4058.0,2139.0,4095.0,1248.0,1088.0
4019.0,4058.0,2139.0,4095.0,1248.0,1088.0
4019.0,3985.0,2288.0,4095.0,1248.0,1284.0
4019.0,3985.0,2288.0,4095.0,1266.0,1284.0
4019.0,3985.0,2288.0,4095.0,1266.0,1284.0
4023.0,3985.0,2288.0,4095.0,1266.0,1284.0
4023.0,3390.0,2608.0,4095.0,1266.0,1284.0
4023.0,3390.0,2608.0,4095.0,1274.0,1284.0
4075.0,3995.0,2630.0,4095.0,1265.0,1174.0
4001.0,3995.0,2630.0,4095.0,1265.0,1174.0
4001.0,4001.0,2211.0,4095.0,1265.0,1174.0
4001.0,4001.0,2211.0,4095.0,1267.0,1174.0
4001.0,4001.0,2211.0,4095.0,1267.0,1098.0
4005.0,4001.0,2211.0,4095.0,1267.0,1098.0
4005.0,3985.0,1891.0,4095.0,1267.0,1098.0
4005.0,3985.0,1891.0,4095.0,1280.0,1065.0
3994.0,4057.0,1831.0,4095.0,1273.0,1083.0
3555.0,3989.0,1831.0,4095.0,1273.0,1083.0
3555.0,3989.0,1347.0,4095.0,1273.0,1083.0
3555.0,3989.0,1347.0,4095.0,1277.0,1247.0
3555.0,3989.0,1347.0,4095.0,1277.0,1247.0
2917.0,3989.0,1347.0,4095.0,1277.0,1247.0
2917.0,4016.0,1283.0,4095.0,1280.0,1247.0
2917.0,4016.0,1283.0,4095.0,1280.0,1153.0
2497.0,4026.0,1148.0,4095.0,1294.0,1271.0
2605.0,4026.0,1148.0,4095.0,1294.0,1271.0
2605.0,4016.0,848.0,4095.0,1296.0,1225.0
2605.0,4016.0,848.0,4095.0,1296.0,1225.0
2256.0,4016.0,848.0,4095.0,1296.0,1225.0
2256.0,4011.0,729.0,4095.0,1295.0,1641.0
2450.0,4011.0,729.0,4095.0,1295.0,1641.0
2450.0,3998.0,631.0,4095.0,1316.0,1794.0
2326.0,3998.0,631.0,4095.0,1316.0,1794.0
2326.0,4016.0,498.0,4095.0,1298.0,1617.0
2326.0,4016.0,498.0,4095.0,1298.0,1617.0
2409.0,4016.0,498.0,4095.0,1298.0,1617.0
2409.0,4009.0,556.0,4095.0,1296.0,1520.0
2257.0,3440.0,556.0,4095.0,1296.0,1520.0
2257.0,3440.0,582.0,4095.0,1294.0,1253.0
1937.0,3440.0,582.0,4095.0,1294.0,1253.0
1937.0,2693.0,417.0,4095.0,1299.0,1119.0
1719.0,2693.0,417.0,4095.0,1299.0,1119.0
1719.0,2219.0,350.0,4095.0,1292.0,1009.0
1719.0,2219.0,350.0,4095.0,1292.0,1009.0
1791.0,2219.0,350.0,4095.0,1292.0,1009.0
1791.0,3120.0,287.0,4095.0,1297.0,718.0
1585.0,3120.0,287.0,4095.0,1297.0,718.0
1585.0,4015.0,249.0,4095.0,1289.0,528.0
1701.0,4015.0,249.0,4095.0,1289.0,528.0
1701.0,3997.0,239.0,4095.0,1300.0,364.0
1733.0,3997.0,239.0,4095.0,1300.0,364.0
1733.0,4005.0,307.0,4095.0,1300.0,364.0
1733.0,4005.0,307.0,4095.0,1295.0,364.0
1733.0,4005.0,307.0,4095.0,1295.0,320.0
1577.0,4005.0,307.0,4095.0,1295.0,320.0
1577.0,4033.0,496.0,4095.0,1313.0,320.0
1577.0,4033.0,496.0,4095.0,1313.0,403.0
1475.0,2790.0,320.0,4095.0,1300.0,592.0
1861.0,2790.0,320.0,4095.0,1300.0,592.0
1861.0,2143.0,490.0,4095.0,1310.0,667.0
1919.0,2143.0,490.0,4095.0,1310.0,667.0
1919.0,2143.0,490.0,4095.0,1310.0,667.0
1919.0,2002.0,400.0,4095.0,1310.0,667.0
1919.0,2002.0,400.0,4095.0,1328.0,1006.0
1919.0,2002.0,400.0,4095.0,1328.0,1006.0
2033.0,2002.0,400.0,4095.0,1328.0,1006.0
2239.0,2891.0,430.0,4095.0,1328.0,1215.0
2303.0,2891.0,430.0,4095.0,1328.0,1215.0
2303.0,3388.0,484.0,4095.0,1334.0,1279.0
2303.0,3388.0,484.0,4095.0,1334.0,1279.0
2306.0,3248.0,484.0,4095.0,1334.0,1279.0
2306.0,3248.0,411.0,4095.0,1327.0,1152.0
2288.0,2987.0,411.0,4095.0,1327.0,1152.0
2288.0,2987.0,486.0,4095.0,1324.0,775.0
2432.0,2572.0,486.0,4095.0,1324.0,775.0
2432.0,2572.0,272.0,4095.0,1311.0,837.0
2509.0,2572.0,272.0,4095.0,1311.0,837.0
2509.0,2219.0,272.0,4095.0,1314.0,837.0
2509.0,2219.0,272.0,4095.0,1314.0,671.0
2509.0,2219.0,272.0,4095.0,1314.0,671.0
2447.0,2219.0,272.0,4095.0,1314.0,671.0
2447.0,2319.0,215.0,4095.0,1315.0,570.0
2431.0,2527.0,215.0,4095.0,1315.0,570.0
2431.0,2527.0,244.0,4095.0,1318.0,540.0
2367.0,2336.0,244.0,4095.0,1318.0,540.0
2367.0,2336.0,347.0,4095.0,1315.0,515.0
2395.0,2336.0,347.0,4095.0,1315.0,515.0
2395.0,2114.0,267.0,4095.0,1315.0,515.0
2395.0,2114.0,267.0,4095.0,1326.0,523.0
2851.0,2114.0,267.0,4095.0,1326.0,523.0
2851.0,2192.0,226.0,4095.0,1326.0,577.0
2659.0,4005.0,226.0,4095.0,1326.0,577.0
2659.0,4005.0,201.0,4095.0,1333.0,801.0
2479.0,4004.0,291.0,4095.0,1333.0,801.0
2479.0,4004.0,291.0,4095.0,1338.0,868.0
2479.0,4004.0,291.0,4095.0,1338.0,868.0
2486.0,4004.0,291.0,4095.0,1338.0,868.0
2486.0,4001.0,247.0,4095.0,1337.0,1199.0
2415.0,3986.0,247.0,4095.0,1337.0,1199.0
2415.0,3986.0,291.0,4095.0,1341.0,1290.0
2288.0,4010.0,291.0,4095.0,1341.0,1290.0
2288.0,4010.0,371.0,4095.0,1328.0,1127.0
2576.0,4010.0,371.0,4095.0,1328.0,1127.0
2576.0,4002.0,343.0,4095.0,1327.0,1127.0
2576.0,4002.0,343.0,4095.0,1327.0,1328.0
2576.0,4002.0,343.0,4095.0,1327.0,1328.0
2576.0,4002.0,343.0,4095.0,1327.0,1328.0
2319.0,3494.0,343.0,4095.0,1327.0,1328.0
1799.0,2374.0,384.0,4095.0,1307.0,966.0
1799.0,2374.0,384.0,4095.0,1307.0,966.0
1778.0,2313.0,384.0,4095.0,1307.0,966.0
1529.0,1872.0,240.0,4095.0,1305.0,414.0
1529.0,1872.0,240.0,4095.0,1305.0,414.0
1485.0,2191.0,240.0,4095.0,1305.0,414.0
1485.0,2191.0,185.0,4095.0,1319.0,530.0
1710.0,2493.0,185.0,4095.0,1319.0,530.0
1710.0,2493.0,151.0,4095.0,1319.0,530.0
1710.0,2493.0,151.0,4095.0,1291.0,748.0
2099.0,2493.0,151.0,4095.0,1291.0,748.0
2099.0,2303.0,151.0,4095.0,1291.0,748.0
2099.0,2303.0,233.0,4095.0,1311.0,1199.0
2095.0,2090.0,185.0,4095.0,1318.0,1199.0
2095.0,2090.0,185.0,4095.0,1318.0,1070.0
2031.0,2090.0,185.0,4095.0,1318.0,1070.0
2031.0,2014.0,274.0,4095.0,1319.0,985.0
1964.0,2014.0,274.0,4095.0,1319.0,985.0
1964.0,1687.0,278.0,4095.0,1333.0,1077.0
1745.0,1687.0,278.0,4095.0,1333.0,1077.0
1745.0,1840.0,625.0,4095.0,1319.0,1030.0
1745.0,1840.0,625.0,4095.0,1319.0,1030.0
1745.0,1840.0,625.0,4095.0,1319.0,1030.0
1728.0,1903.0,429.0,4095.0,1322.0,1030.0
1728.0,1903.0,429.0,4095.0,1322.0,897.0
1627.0,4016.0,429.0,4095.0,1322.0,897.0
1627.0,4016.0,489.0,4095.0,1327.0,976.0
1823.0,3993.0,489.0,4095.0,1327.0,976.0
1823.0,3993.0,558.0,4095.0,1325.0,947.0
1671.0,4019.0,558.0,4095.0,1325.0,947.0
1671.0,4019.0,551.0,4095.0,1305.0,738.0
1671.0,4019.0,551.0,4095.0,1305.0,738.0
1671.0,4019.0,551.0,4095.0,1305.0,738.0
1670.0,3995.0,505.0,4095.0,1307.0,816.0
1670.0,3995.0,505.0,4095.0,1307.0,816.0
1670.0,3995.0,505.0,4095.0,1307.0,816.0
1627.0,3997.0,505.0,4095.0,1307.0,816.0
1559.0,3975.0,193.0,4095.0,1313.0,794.0
1559.0,3975.0,193.0,4095.0,1313.0,794.0
1559.0,3996.0,193.0,4095.0,1313.0,794.0
1559.0,3996.0,290.0,4095.0,1328.0,978.0
1559.0,3996.0,290.0,4095.0,1328.0,978.0
1471.0,2806.0,290.0,4095.0,1328.0,978.0
1471.0,2806.0,203.0,4095.0,1328.0,978.0
1471.0,2806.0,203.0,4095.0,1328.0,978.0
1471.0,2806.0,203.0,4095.0,1338.0,978.0
1589.0,1911.0,566.0,4095.0,1342.0,1643.0
1589.0,1911.0,566.0,4095.0,1342.0,1643.0
1561.0,1911.0,566.0,4095.0,1342.0,1643.0
1561.0,1943.0,779.0,4095.0,1335.0,1465.0
1561.0,1943.0,779.0,4095.0,1335.0,1465.0
1711.0,2133.0,779.0,4095.0,1335.0,1465.0
1881.0,2093.0,1344.0,4095.0,1329.0,1261.0
1881.0,2093.0,1344.0,4095.0,1329.0,1261.0
1918.0,2096.0,1344.0,4095.0,1329.0,1261.0
1918.0,2096.0,1702.0,4095.0,1325.0,811.0
2172.0,1934.0,1702.0,4095.0,1325.0,811.0
2172.0,1934.0,1746.0,4095.0,1325.0,656.0
2109.0,1662.0,1746.0,4095.0,1325.0,656.0
2109.0,1662.0,1233.0,4095.0,1319.0,522.0
1929.0,1663.0,1233.0,4095.0,1319.0,522.0
1929.0,1663.0,1251.0,4095.0,1323.0,521.0
1929.0,1663.0,1251.0,4095.0,1323.0,521.0
1858.0,1744.0,1251.0,4095.0,1323.0,521.0
1858.0,1744.0,880.0,4095.0,1328.0,500.0
1829.0,1744.0,880.0,4095.0,1328.0,500.0
1829.0,1596.0,688.0,4095.0,1335.0,813.0
1922.0,1596.0,688.0,4095.0,1335.0,813.0
1922.0,1841.0,498.0,4095.0,1329.0,599.0
2005.0,1841.0,498.0,4095.0,1329.0,599.0
2005.0,1946.0,335.0,4095.0,1331.0,599.0
2005.0,1946.0,335.0,4095.0,1331.0,704.0
2005.0,1946.0,335.0,4095.0,1331.0,704.0
2032.0,1779.0,335.0,4095.0,1331.0,704.0
2032.0,1779.0,330.0,4095.0,1331.0,704.0
2032.0,1779.0,330.0,4095.0,1327.0,704.0
1951.0,1955.0,330.0,4095.0,1327.0,528.0
1951.0,1955.0,240.0,4095.0,1327.0,528.0
2199.0,2177.0,225.0,4095.0,1339.0,893.0
2199.0,2177.0,225.0,4095.0,1339.0,893.0
2271.0,2007.0,257.0,4095.0,1354.0,1559.0
2271.0,2007.0,257.0,4095.0,1354.0,1559.0
2298.0,1847.0,257.0,4095.0,1354.0,1559.0
2298.0,1847.0,331.0,4095.0,1351.0,1145.0
2487.0,1786.0,331.0,4095.0,1351.0,1145.0
2487.0,1786.0,211.0,4095.0,1343.0,1195.0
2096.0,1568.0,264.0,4095.0,1355.0,1282.0
1595.0,1568.0,264.0,4095.0,1355.0,1282.0
1595.0,3543.0,245.0,4095.0,1338.0,1282.0
1595.0,3543.0,245.0,4095.0,1338.0,1148.0
1595.0,3543.0,245.0,4095.0,1338.0,1148.0
1203.0,3641.0,245.0,4095.0,1338.0,1148.0
1203.0,3641.0,228.0,4095.0,1333.0,825.0
1287.0,3641.0,228.0,4095.0,1333.0,825.0
1287.0,2576.0,196.0,4095.0,1327.0,710.0
1819.0,2576.0,196.0,4095.0,1327.0,710.0
1819.0,2089.0,323.0,4095.0,1326.0,624.0
1415.0,2089.0,323.0,4095.0,1326.0,624.0
1415.0,2089.0,323.0,4095.0,1326.0,624.0
1415.0,2593.0,323.0,4095.0,1326.0,624.0
1415.0,2593.0,388.0,4095.0,1318.0,721.0
1222.0,2593.0,388.0,4095.0,1318.0,721.0
1222.0,4011.0,446.0,4095.0,1337.0,986.0
1008.0,4016.0,663.0,4095.0,1337.0,986.0
1008.0,4016.0,663.0,4095.0,1328.0,1139.0
894.0,4000.0,501.0,4095.0,1335.0,1159.0
894.0,4000.0,501.0,4095.0,1335.0,1159.0
894.0,4000.0,501.0,4095.0,1335.0,1159.0
894.0,4000.0,501.0,4095.0,1335.0,1159.0
775.0,4000.0,501.0,4095.0,1335.0,1159.0
1323.0,3995.0,478.0,4095.0,1332.0,1225.0
1739.0,3968.0,291.0,4095.0,1332.0,1225.0
1547.0,2687.0,256.0,4095.0,1314.0,700.0
1547.0,2687.0,256.0,4095.0,1314.0,700.0
1547.0,2687.0,256.0,4095.0,1314.0,700.0
1709.0,2189.0,240.0,4095.0,1327.0,991.0
1709.0,2189.0,240.0,4095.0,1327.0,991.0
1710.0,1741.0,232.0,4095.0,1325.0,706.0
1680.0,1632.0,252.0,4095.0,1326.0,689.0
1680.0,1632.0,252.0,4095.0,1326.0,689.0
1319.0,1520.0,289.0,4095.0,1323.0,575.0
1319.0,1520.0,289.0,4095.0,1323.0,575.0
1319.0,1520.0,289.0,4095.0,1323.0,575.0
1011.0,2022.0,411.0,4095.0,1319.0,500.0
754.0,2022.0,411.0,4095.0,1319.0,500.0
754.0,2768.0,368.0,4095.0,1319.0,382.0
991.0,2658.0,805.0,4095.0,1319.0,382.0
991.0,2658.0,805.0,4095.0,1328.0,326.0
1694.0,2302.0,763.0,4095.0,1319.0,340.0
1694.0,2302.0,763.0,4095.0,1319.0,340.0
1694.0,2302.0,763.0,4095.0,1319.0,340.0
2416.0,2162.0,588.0,4095.0,1328.0,464.0
1471.0,2162.0,588.0,4095.0,1328.0,464.0
1471.0,1759.0,363.0,4095.0,1325.0,496.0
1460.0,1603.0,295.0,4095.0,1325.0,496.0
1460.0,1603.0,295.0,4095.0,1325.0,496.0
1488.0,1363.0,295.0,4095.0,1330.0,713.0
1488.0,1363.0,213.0,4095.0,1330.0,713.0
1488.0,1363.0,213.0,4095.0,1340.0,719.0
1885.0,1301.0,213.0,4095.0,1340.0,719.0
1885.0,1301.0,203.0,4095.0,1347.0,767.0
1968.0,1301.0,203.0,4095.0,1347.0,767.0
1968.0,1137.0,248.0,4095.0,1335.0,685.0
1950.0,931.0,194.0,4095.0,1335.0,685.0
1950.0,931.0,194.0,4095.0,1345.0,961.0
1428.0,900.0,272.0,4095.0,1357.0,750.0
1280.0,900.0,272.0,4095.0,1357.0,750.0
1280.0,722.0,249.0,4095.0,1357.0,750.0
1280.0,722.0,249.0,4095.0,1339.0,695.0
1280.0,722.0,249.0,4095.0,1339.0,695.0
1280.0,722.0,249.0,4095.0,1339.0,695.0
921.0,771.0,238.0,4095.0,1344.0,695.0
707.0,1069.0,348.0,4095.0,1339.0,390.0
614.0,1206.0,558.0,4095.0,1344.0,399.0
599.0,1206.0,558.0,4095.0,1344.0,399.0
599.0,1923.0,574.0,4095.0,1333.0,465.0
599.0,1923.0,574.0,4095.0,1333.0,465.0
599.0,1923.0,574.0,4095.0,1333.0,465.0
701.0,1923.0,574.0,4095.0,1333.0,465.0
701.0,2590.0,426.0,4095.0,1345.0,402.0
1131.0,3218.0,426.0,4095.0,1345.0,402.0
1131.0,3218.0,320.0,4095.0,1342.0,387.0
1584.0,2419.0,320.0,4095.0,1342.0,387.0
1584.0,2419.0,208.0,4095.0,1335.0,471.0
1584.0,2419.0,208.0,4095.0,1335.0,471.0
2203.0,2419.0,208.0,4095.0,1335.0,471.0
2203.0,2181.0,222.0,4095.0,1335.0,471.0
2203.0,2181.0,222.0,4095.0,1335.0,471.0
2203.0,2181.0,222.0,4095.0,1335.0,471.0
2512.0,2181.0,222.0,4095.0,1339.0,679.0
2688.0,1378.0,304.0,4095.0,1346.0,1149.0
2283.0,1378.0,304.0,4095.0,1346.0,1149.0
2283.0,1063.0,320.0,4095.0,1351.0,1327.0
2027.0,903.0,320.0,4095.0,1351.0,1327.0
2027.0,903.0,455.0,4095.0,1335.0,1367.0
2027.0,903.0,455.0,4095.0,1335.0,1367.0
1715.0,903.0,455.0,4095.0,1335.0,1367.0
1715.0,799.0,379.0,4095.0,1348.0,1321.0
1618.0,799.0,379.0,4095.0,1348.0,1321.0
1618.0,671.0,674.0,4095.0,1347.0,1073.0
1486.0,570.0,674.0,4095.0,1347.0,1073.0
1486.0,570.0,475.0,4095.0,1328.0,823.0
1408.0,518.0,475.0,4095.0,1328.0,823.0
1408.0,518.0,625.0,4095.0,1327.0,589.0
1408.0,518.0,625.0,4095.0,1327.0,589.0
1406.0,631.0,625.0,4095.0,1327.0,589.0
1406.0,631.0,572.0,4095.0,1333.0,493.0
1780.0,631.0,572.0,4095.0,1333.0,493.0
1780.0,994.0,975.0,4095.0,1331.0,481.0
2070.0,994.0,975.0,4095.0,1331.0,481.0
2070.0,994.0,1001.0,4095.0,1331.0,481.0
3135.0,2898.0,1001.0,4095.0,1335.0,448.0
3135.0,2898.0,1152.0,4095.0,1339.0,604.0
3135.0,2898.0,1152.0,4095.0,1339.0,604.0
4030.0,3279.0,1152.0,4095.0,1339.0,604.0
4030.0,3279.0,1679.0,4095.0,1342.0,695.0
3998.0,3279.0,1679.0,4095.0,1342.0,695.0
3998.0,4017.0,1711.0,4095.0,1334.0,897.0
4043.0,4003.0,1711.0,4095.0,1334.0,897.0
4043.0,4003.0,1777.0,4095.0,1334.0,897.0
4043.0,4003.0,1777.0,4095.0,1337.0,897.0
4043.0,4003.0,1777.0,4095.0,1337.0,1178.0
3991.0,4003.0,1777.0,4095.0,1337.0,1178.0
3991.0,3578.0,1424.0,4095.0,1328.0,1250.0
3999.0,3578.0,1424.0,4095.0,1328.0,1250.0
3999.0,4007.0,1235.0,4095.0,1315.0,1359.0
4007.0,4014.0,1235.0,4095.0,1315.0,1359.0
4007.0,4014.0,1157.0,4095.0,1323.0,1412.0
4007.0,4014.0,1157.0,4095.0,1323.0,1412.0
4007.0,4014.0,1157.0,4095.0,1323.0,1412.0
3840.0,2379.0,905.0,4095.0,1313.0,1442.0
2521.0,2379.0,905.0,4095.0,1313.0,1442.0
2521.0,1206.0,646.0,4095.0,1315.0,1391.0
1664.0,1206.0,646.0,4095.0,1315.0,1391.0
1664.0,843.0,337.0,4095.0,1319.0,1321.0
1664.0,843.0,337.0,4095.0,1319.0,1321.0
1122.0,843.0,337.0,4095.0,1319.0,1321.0
1234.0,535.0,281.0,4095.0,1316.0,1342.0
1234.0,535.0,281.0,4095.0,1316.0,1342.0
1234.0,535.0,281.0,4095.0,1316.0,1342.0
1411.0,400.0,418.0,4095.0,1330.0,1472.0
1727.0,400.0,418.0,4095.0,1330.0,1472.0
1727.0,400.0,300.0,4095.0,1344.0,1619.0
2023.0,404.0,491.0,4095.0,1344.0,1619.0
2023.0,404.0,491.0,4095.0,1344.0,1806.0
2023.0,404.0,491.0,4095.0,1344.0,1806.0
2323.0,404.0,491.0,4095.0,1344.0,1806.0
2323.0,550.0,630.0,4095.0,1344.0,2032.0
2580.0,550.0,630.0,4095.0,1344.0,2032.0
2580.0,678.0,755.0,4095.0,1350.0,2129.0
2902.0,678.0,755.0,4095.0,1350.0,2129.0
2902.0,963.0,1239.0,4095.0,1350.0,2129.0
3004.0,963.0,1239.0,4095.0,1344.0,2069.0
3004.0,880.0,1239.0,4095.0,1344.0,2069.0
3004.0,880.0,1517.0,4095.0,1333.0,1953.0
3351.0,880.0,1517.0,4095.0,1333.0,1953.0
3351.0,927.0,2002.0,4095.0,1334.0,1709.0
3210.0,927.0,2002.0,4095.0,1334.0,1709.0
3210.0,1022.0,1872.0,4095.0,1313.0,1482.0
3083.0,1022.0,1872.0,4095.0,1313.0,1482.0
3083.0,921.0,2127.0,4095.0,1316.0,1269.0
3083.0,921.0,2127.0,4095.0,1316.0,1269.0
3046.0,921.0,2127.0,4095.0,1316.0,1269.0
3046.0,773.0,1607.0,4095.0,1309.0,1050.0
2892.0,773.0,1607.0,4095.0,1309.0,1050.0
2892.0,525.0,1360.0,4095.0,1308.0,889.0
2669.0,447.0,1097.0,4095.0,1308.0,889.0
2669.0,447.0,1097.0,4095.0,1301.0,815.0
2321.0,303.0,1097.0,4095.0,1301.0,815.0
2321.0,303.0,625.0,4095.0,1305.0,973.0
2321.0,303.0,625.0,4095.0,1305.0,973.0
1968.0,303.0,625.0,4095.0,1305.0,973.0
1968.0,359.0,427.0,4095.0,1325.0,1250.0
1611.0,359.0,427.0,4095.0,1325.0,1250.0
1611.0,401.0,442.0,4095.0,1328.0,1432.0
1611.0,401.0,442.0,4095.0,1328.0,1432.0
1611.0,401.0,442.0,4095.0,1328.0,1432.0
1225.0,1472.0,677.0,4095.0,1321.0,1778.0
1225.0,1472.0,677.0,4095.0,1321.0,1778.0
1599.0,1472.0,677.0,4095.0,1321.0,1778.0
1599.0,1471.0,1150.0,4095.0,1327.0,1673.0
3014.0,1471.0,1150.0,4095.0,1327.0,1673.0
3014.0,2626.0,1422.0,4095.0,1327.0,1673.0
3014.0,2626.0,1422.0,4095.0,1327.0,1673.0
4027.0,4017.0,1422.0,4095.0,1326.0,1449.0
4027.0,4017.0,1743.0,4095.0,1326.0,1449.0
4032.0,3963.0,1743.0,4095.0,1319.0,1615.0
4032.0,3963.0,1569.0,4095.0,1323.0,2145.0
4032.0,3963.0,1569.0,4095.0,1323.0,2145.0
4014.0,4008.0,1450.0,4095.0,1346.0,2789.0
4007.0,4008.0,1450.0,4095.0,1346.0,2789.0
4007.0,2411.0,971.0,4095.0,1334.0,3472.0
4007.0,2411.0,971.0,4095.0,1334.0,3472.0
4007.0,2411.0,971.0,4095.0,1334.0,3472.0
3248.0,1611.0,666.0,4095.0,1327.0,4031.0
2800.0,978.0,475.0,4095.0,1322.0,4031.0
2800.0,978.0,475.0,4095.0,1322.0,4042.0
2197.0,714.0,475.0,4095.0,1322.0,4042.0
2197.0,714.0,366.0,4095.0,1331.0,4054.0
1462.0,714.0,366.0,4095.0,1331.0,4054.0
1462.0,646.0,275.0,4095.0,1314.0,4004.0
1462.0,646.0,275.0,4095.0,1314.0,4004.0
1462.0,646.0,275.0,4095.0,1314.0,4004.0
943.0,646.0,275.0,4095.0,1314.0,4004.0
943.0,657.0,248.0,4095.0,1326.0,4000.0
943.0,657.0,248.0,4095.0,1326.0,4000.0
943.0,657.0,248.0,4095.0,1326.0,4000.0
576.0,832.0,208.0,4095.0,1326.0,4032.0
576.0,832.0,173.0,4095.0,1323.0,3953.0
685.0,832.0,173.0,4095.0,1323.0,3953.0
685.0,961.0,109.0,4095.0,1320.0,4014.0
685.0,961.0,109.0,4095.0,1320.0,4014.0
685.0,961.0,109.0,4095.0,1320.0,4014.0
760.0,961.0,109.0,4095.0,1320.0,4014.0
760.0,976.0,125.0,4095.0,1329.0,4005.0
760.0,976.0,125.0,4095.0,1329.0,4005.0
760.0,976.0,125.0,4095.0,1329.0,4005.0
752.0,983.0,144.0,4095.0,1325.0,4005.0
752.0,983.0,144.0,4095.0,1325.0,4039.0
1431.0,959.0,135.0,4095.0,1328.0,4065.0
1431.0,959.0,135.0,4095.0,1328.0,4065.0
1552.0,959.0,135.0,4095.0,1328.0,4065.0
1552.0,927.0,250.0,4095.0,1315.0,3631.0
1552.0,748.0,250.0,4095.0,1315.0,3631.0
1362.0,748.0,304.0,4095.0,1314.0,3097.0
1742.0,748.0,304.0,4095.0,1314.0,3097.0
1742.0,827.0,269.0,4095.0,1296.0,2576.0
1742.0,827.0,269.0,4095.0,1296.0,2576.0
2422.0,762.0,269.0,4095.0,1296.0,2576.0
2422.0,762.0,214.0,4095.0,1307.0,2477.0
1763.0,762.0,214.0,4095.0,1307.0,2477.0
1763.0,668.0,176.0,4095.0,1301.0,2131.0
1967.0,668.0,176.0,4095.0,1301.0,2131.0
1967.0,659.0,311.0,4095.0,1306.0,1990.0
1521.0,659.0,311.0,4095.0,1306.0,1990.0
1521.0,555.0,297.0,4095.0,1302.0,1679.0
1521.0,555.0,297.0,4095.0,1302.0,1679.0
1521.0,555.0,297.0,4095.0,1302.0,1679.0
1241.0,467.0,287.0,4095.0,1296.0,1647.0
1040.0,467.0,287.0,4095.0,1296.0,1647.0
1040.0,329.0,337.0,4095.0,1310.0,1653.0
1040.0,329.0,337.0,4095.0,1310.0,1653.0
1040.0,329.0,337.0,4095.0,1310.0,1653.0
849.0,267.0,279.0,4095.0,1324.0,1859.0
849.0,267.0,279.0,4095.0,1324.0,1859.0
848.0,267.0,279.0,4095.0,1324.0,1859.0
848.0,240.0,292.0,4095.0,1317.0,1744.0
848.0,240.0,292.0,4095.0,1317.0,1744.0
819.0,240.0,292.0,4095.0,1317.0,1744.0
819.0,326.0,241.0,4095.0,1322.0,1744.0
738.0,561.0,276.0,4095.0,1322.0,1556.0
738.0,561.0,276.0,4095.0,1295.0,1281.0
704.0,561.0,276.0,4095.0,1295.0,1281.0
704.0,613.0,338.0,4095.0,1287.0,898.0
881.0,613.0,338.0,4095.0,1287.0,898.0
881.0,378.0,322.0,4095.0,1296.0,688.0
881.0,378.0,322.0,4095.0,1296.0,688.0
881.0,378.0,322.0,4095.0,1296.0,688.0
960.0,286.0,311.0,4095.0,1299.0,688.0
985.0,223.0,269.0,4095.0,1299.0,487.0
985.0,223.0,269.0,4095.0,1309.0,382.0
933.0,191.0,300.0,4095.0,1315.0,347.0
923.0,191.0,300.0,4095.0,1315.0,347.0
923.0,201.0,247.0,4095.0,1328.0,348.0
842.0,201.0,247.0,4095.0,1328.0,348.0
842.0,165.0,226.0,4095.0,1328.0,369.0
842.0,165.0,226.0,4095.0,1328.0,369.0
842.0,165.0,226.0,4095.0,1328.0,369.0
706.0,171.0,254.0,4095.0,1333.0,474.0
706.0,171.0,322.0,4095.0,1343.0,518.0
621.0,176.0,322.0,4095.0,1343.0,518.0
621.0,176.0,269.0,4095.0,1351.0,534.0
624.0,176.0,269.0,4095.0,1351.0,534.0
624.0,413.0,816.0,4095.0,1343.0,541.0
666.0,413.0,816.0,4095.0,1343.0,541.0
666.0,564.0,875.0,4095.0,1351.0,455.0
666.0,564.0,875.0,4095.0,1351.0,455.0
693.0,599.0,875.0,4095.0,1351.0,455.0
693.0,599.0,1195.0,4095.0,1351.0,455.0
902.0,539.0,1195.0,4095.0,1350.0,503.0
902.0,539.0,1361.0,4095.0,1350.0,503.0
986.0,1152.0,1535.0,4095.0,1350.0,697.0
983.0,1152.0,1535.0,4095.0,1350.0,697.0
983.0,958.0,1718.0,4095.0,1346.0,717.0
983.0,958.0,1718.0,4095.0,1346.0,717.0
924.0,958.0,1718.0,4095.0,1346.0,717.0
924.0,749.0,1583.0,4095.0,1344.0,708.0
866.0,607.0,1527.0,4095.0,1346.0,634.0
670.0,607.0,1527.0,4095.0,1346.0,634.0
670.0,454.0,1147.0,4095.0,1339.0,620.0
659.0,454.0,1147.0,4095.0,1339.0,620.0
659.0,368.0,786.0,4095.0,1331.0,481.0
705.0,336.0,786.0,4095.0,1331.0,481.0
705.0,336.0,718.0,4095.0,1331.0,481.0
705.0,336.0,718.0,4095.0,1327.0,444.0
705.0,336.0,718.0,4095.0,1327.0,444.0
746.0,320.0,718.0,4095.0,1327.0,444.0
746.0,320.0,433.0,4095.0,1331.0,319.0
844.0,320.0,433.0,4095.0,1331.0,319.0
844.0,402.0,370.0,4095.0,1342.0,298.0
1690.0,470.0,370.0,4095.0,1342.0,298.0
1690.0,470.0,320.0,4095.0,1335.0,327.0
1789.0,470.0,320.0,4095.0,1335.0,327.0
1789.0,643.0,381.0,4095.0,1347.0,551.0
1789.0,643.0,381.0,4095.0,1347.0,551.0
1789.0,643.0,381.0,4095.0,1347.0,551.0
1703.0,796.0,195.0,4095.0,1342.0,683.0
1895.0,1168.0,195.0,4095.0,1342.0,683.0
1895.0,1168.0,242.0,4095.0,1357.0,1047.0
1927.0,976.0,242.0,4095.0,1357.0,1047.0
1927.0,976.0,274.0,4095.0,1357.0,1047.0
1927.0,976.0,274.0,4095.0,1357.0,1047.0
1633.0,861.0,274.0,4095.0,1366.0,1555.0
1633.0,861.0,208.0,4095.0,1366.0,1555.0
1642.0,559.0,218.0,4095.0,1356.0,1310.0
1642.0,559.0,218.0,4095.0,1356.0,1310.0
1642.0,559.0,218.0,4095.0,1356.0,1310.0
1407.0,352.0,218.0,4095.0,1356.0,1310.0
1407.0,352.0,304.0,4095.0,1353.0,1086.0
1122.0,352.0,304.0,4095.0,1353.0,1086.0
1122.0,192.0,252.0,4095.0,1338.0,955.0
1122.0,192.0,252.0,4095.0,1338.0,955.0
1122.0,192.0,252.0,4095.0,1338.0,955.0
2096.0,163.0,244.0,4095.0,1328.0,679.0
2096.0,163.0,244.0,4095.0,1338.0,903.0
2096.0,163.0,244.0,4095.0,1338.0,903.0
1726.0,174.0,244.0,4095.0,1338.0,903.0
1726.0,174.0,430.0,4095.0,1344.0,775.0
2185.0,174.0,430.0,4095.0,1344.0,775.0
2185.0,348.0,357.0,4095.0,1344.0,768.0
2288.0,269.0,357.0,4095.0,1344.0,768.0
2288.0,269.0,481.0,4095.0,1354.0,1371.0
2202.0,269.0,481.0,4095.0,1354.0,1371.0
2202.0,464.0,688.0,4095.0,1329.0,1175.0
2202.0,464.0,688.0,4095.0,1329.0,1175.0
2391.0,464.0,688.0,4095.0,1329.0,1175.0
2391.0,400.0,591.0,4095.0,1347.0,1456.0
2202.0,400.0,591.0,4095.0,1347.0,1456.0
2202.0,291.0,400.0,4095.0,1327.0,1038.0
1776.0,291.0,400.0,4095.0,1327.0,1038.0
1776.0,188.0,442.0,4095.0,1328.0,874.0
1755.0,188.0,442.0,4095.0,1328.0,874.0
1755.0,213.0,349.0,4095.0,1333.0,619.0
1633.0,213.0,349.0,4095.0,1333.0,619.0
1633.0,145.0,240.0,4095.0,1333.0,619.0
1633.0,145.0,240.0,4095.0,1329.0,619.0
1633.0,145.0,240.0,4095.0,1329.0,802.0
1621.0,134.0,240.0,4095.0,1329.0,802.0
1621.0,134.0,171.0,4095.0,1347.0,1136.0
1339.0,134.0,171.0,4095.0,1347.0,1136.0
1339.0,250.0,229.0,4095.0,1326.0,679.0
1223.0,250.0,229.0,4095.0,1326.0,679.0
1223.0,473.0,265.0,4095.0,1327.0,464.0
954.0,473.0,265.0,4095.0,1327.0,464.0
954.0,531.0,220.0,4095.0,1334.0,597.0
954.0,531.0,220.0,4095.0,1334.0,597.0
911.0,531.0,220.0,4095.0,1334.0,597.0
911.0,1359.0,318.0,4095.0,1338.0,940.0
1092.0,1730.0,467.0,4095.0,1338.0,940.0
1092.0,1730.0,467.0,4095.0,1345.0,1182.0
1092.0,1730.0,467.0,4095.0,1345.0,1182.0
1092.0,1730.0,467.0,4095.0,1345.0,1182.0
935.0,810.0,459.0,4095.0,1343.0,1221.0
1043.0,810.0,459.0,4095.0,1343.0,1221.0
1043.0,810.0,459.0,4095.0,1343.0,1221.0
1043.0,823.0,459.0,4095.0,1343.0,1221.0
1043.0,823.0,394.0,4095.0,1344.0,1398.0
1136.0,723.0,645.0,4095.0,1346.0,1117.0
1136.0,723.0,645.0,4095.0,1346.0,1117.0
1136.0,723.0,645.0,4095.0,1346.0,1117.0
1361.0,723.0,645.0,4095.0,1346.0,1117.0
1821.0,592.0,816.0,4095.0,1345.0,1787.0
1821.0,592.0,816.0,4095.0,1345.0,1787.0
1821.0,592.0,816.0,4095.0,1345.0,1787.0
1647.0,688.0,933.0,4095.0,1353.0,2007.0
1970.0,675.0,1277.0,4095.0,1353.0,2007.0
1984.0,688.0,1277.0,4095.0,1360.0,2365.0
1984.0,688.0,2047.0,4095.0,1360.0,2365.0
2352.0,623.0,1159.0,4095.0,1305.0,1852.0
2352.0,623.0,1159.0,4095.0,1305.0,1852.0
2352.0,623.0,1159.0,4095.0,1305.0,1852.0
2702.0,581.0,1195.0,4095.0,1313.0,2065.0
2261.0,415.0,1086.0,4095.0,1305.0,2065.0
2261.0,415.0,1086.0,4095.0,1305.0,1676.0
2446.0,415.0,1086.0,4095.0,1305.0,1676.0
2446.0,423.0,826.0,4095.0,1322.0,1886.0
2227.0,423.0,826.0,4095.0,1322.0,1886.0
2227.0,382.0,4095.0,4095.0,1299.0,1373.0
2227.0,382.0,4095.0,4095.0,1299.0,1373.0
2227.0,382.0,4095.0,4095.0,1299.0,1373.0
1919.0,393.0,4095.0,4095.0,1299.0,1373.0
1919.0,393.0,418.0,4095.0,1307.0,1479.0
1660.0,378.0,397.0,4095.0,1307.0,1479.0
1660.0,378.0,397.0,4095.0,1289.0,1045.0
1513.0,311.0,387.0,4095.0,1300.0,972.0
1374.0,333.0,387.0,4095.0,1300.0,972.0
1374.0,333.0,353.0,4095.0,1298.0,957.0
1374.0,333.0,353.0,4095.0,1298.0,957.0
1374.0,333.0,353.0,4095.0,1298.0,957.0
939.0,333.0,353.0,4095.0,1298.0,957.0
939.0,511.0,240.0,4095.0,1297.0,687.0
1197.0,511.0,240.0,4095.0,1297.0,687.0
1197.0,605.0,328.0,4095.0,1319.0,888.0
1194.0,605.0,328.0,4095.0,1319.0,888.0
1194.0,745.0,469.0,4095.0,1335.0,1222.0
1883.0,745.0,469.0,4095.0,1335.0,1222.0
1883.0,498.0,455.0,4095.0,1321.0,829.0
1838.0,611.0,455.0,4095.0,1321.0,829.0
1838.0,611.0,366.0,4095.0,1321.0,829.0
1838.0,611.0,366.0,4095.0,1321.0,829.0
1838.0,611.0,366.0,4095.0,1306.0,609.0
1554.0,611.0,366.0,4095.0,1306.0,609.0
1554.0,851.0,496.0,4095.0,1324.0,850.0
1578.0,851.0,496.0,4095.0,1324.0,850.0
1578.0,814.0,455.0,4095.0,1325.0,973.0
1426.0,766.0,371.0,4095.0,1337.0,1185.0
1426.0,766.0,371.0,4095.0,1337.0,1185.0
1174.0,766.0,371.0,4095.0,1337.0,1185.0
1174.0,549.0,336.0,4095.0,1337.0,1223.0
1174.0,549.0,336.0,4095.0,1337.0,1223.0
1174.0,549.0,336.0,4095.0,1337.0,1223.0
982.0,371.0,319.0,4095.0,1337.0,1223.0
982.0,371.0,319.0,4095.0,1344.0,1424.0
1199.0,371.0,319.0,4095.0,1344.0,1424.0
1199.0,274.0,398.0,4095.0,1351.0,1535.0
1238.0,274.0,398.0,4095.0,1351.0,1535.0
1238.0,208.0,913.0,4095.0,1346.0,1635.0
1238.0,208.0,913.0,4095.0,1346.0,1635.0
1291.0,208.0,913.0,4095.0,1346.0,1635.0
1360.0,112.0,1161.0,4095.0,1360.0,2118.0
1360.0,112.0,1161.0,4095.0,1360.0,2118.0
1360.0,112.0,1161.0,4095.0,1360.0,2118.0
1507.0,144.0,1232.0,4095.0,1369.0,2143.0
1507.0,144.0,1232.0,4095.0,1369.0,2433.0
1725.0,144.0,1232.0,4095.0,1369.0,2433.0
1725.0,234.0,2157.0,4095.0,1363.0,2991.0
2032.0,234.0,2157.0,4095.0,1363.0,2991.0
2032.0,330.0,2544.0,4095.0,1363.0,3219.0
2032.0,330.0,2544.0,4095.0,1363.0,3219.0
2032.0,330.0,2544.0,4095.0,1363.0,3219.0
2410.0,322.0,2522.0,4095.0,1362.0,3219.0
2410.0,322.0,2522.0,4095.0,1362.0,4031.0
2619.0,322.0,2522.0,4095.0,1362.0,4031.0
2619.0,288.0,2451.0,4095.0,1362.0,4031.0
2619.0,288.0,2451.0,4095.0,1362.0,4031.0
3119.0,206.0,2451.0,4095.0,1354.0,4095.0
3119.0,206.0,1841.0,4095.0,1354.0,4095.0
3119.0,206.0,1841.0,4095.0,1346.0,4048.0
3591.0,206.0,1841.0,4095.0,1346.0,4048.0
3591.0,92.0,1283.0,4095.0,1340.0,3886.0
3931.0,92.0,1283.0,4095.0,1340.0,3886.0
3931.0,77.0,789.0,4095.0,1325.0,4039.0
4026.0,39.0,653.0,4095.0,1327.0,3967.0
4026.0,39.0,653.0,4095.0,1327.0,3967.0
3917.0,423.0,653.0,4095.0,1327.0,3967.0
3917.0,423.0,494.0,4095.0,1314.0,3890.0
3796.0,491.0,494.0,4095.0,1314.0,3890.0
3796.0,491.0,434.0,4095.0,1318.0,4064.0
3413.0,491.0,434.0,4095.0,1318.0,4064.0
3413.0,563.0,416.0,4095.0,1306.0,4016.0
2881.0,563.0,416.0,4095.0,1306.0,4016.0
2881.0,1134.0,560.0,4095.0,1317.0,4016.0
2881.0,1134.0,560.0,4095.0,1317.0,4031.0
2881.0,1134.0,560.0,4095.0,1317.0,4031.0
2305.0,993.0,560.0,4095.0,1317.0,4031.0
2305.0,993.0,432.0,4095.0,1302.0,4048.0
1970.0,993.0,432.0,4095.0,1302.0,4048.0
1970.0,915.0,346.0,4095.0,1305.0,3922.0
1600.0,915.0,346.0,4095.0,1305.0,3922.0
1600.0,819.0,254.0,4095.0,1301.0,3997.0
1600.0,819.0,254.0,4095.0,1301.0,3997.0
1424.0,819.0,254.0,4095.0,1301.0,3997.0
1424.0,703.0,340.0,4095.0,1306.0,4042.0
1488.0,703.0,340.0,4095.0,1306.0,4042.0
1488.0,637.0,320.0,4095.0,1315.0,3995.0
1625.0,494.0,320.0,4095.0,1315.0,3995.0
1625.0,494.0,319.0,4095.0,1315.0,3995.0
1625.0,494.0,319.0,4095.0,1315.0,3995.0
1787.0,419.0,319.0,4095.0,1305.0,4035.0
1787.0,419.0,317.0,4095.0,1305.0,4035.0
1787.0,419.0,317.0,4095.0,1313.0,4016.0
1746.0,397.0,317.0,4095.0,1313.0,4016.0
1746.0,397.0,443.0,4095.0,1313.0,4013.0
1792.0,397.0,443.0,4095.0,1313.0,4013.0
1792.0,311.0,320.0,4095.0,1300.0,4031.0
2007.0,349.0,320.0,4095.0,1300.0,4031.0
2007.0,349.0,882.0,4095.0,1301.0,4095.0
2007.0,349.0,882.0,4095.0,1301.0,4095.0
2007.0,349.0,882.0,4095.0,1301.0,4095.0
2192.0,327.0,905.0,4095.0,1301.0,3647.0
2388.0,231.0,905.0,4095.0,1301.0,3647.0
2388.0,231.0,743.0,4095.0,1294.0,3238.0
2394.0,247.0,743.0,4095.0,1294.0,3238.0
2394.0,247.0,888.0,4095.0,1290.0,2952.0
2251.0,169.0,888.0,4095.0,1290.0,2952.0
2251.0,169.0,624.0,4095.0,1295.0,2816.0
2251.0,169.0,624.0,4095.0,1295.0,2816.0
2251.0,169.0,624.0,4095.0,1295.0,2816.0
2151.0,230.0,1191.0,4095.0,1296.0,2449.0
2487.0,230.0,1191.0,4095.0,1296.0,2449.0
2487.0,351.0,985.0,4095.0,1291.0,2314.0
2347.0,351.0,985.0,4095.0,1291.0,2314.0
2347.0,283.0,1163.0,4095.0,1292.0,2096.0
2347.0,283.0,1163.0,4095.0,1292.0,2096.0
2103.0,295.0,1163.0,4095.0,1292.0,2096.0
2103.0,295.0,1455.0,4095.0,1280.0,1743.0
2103.0,295.0,1455.0,4095.0,1280.0,1743.0
2103.0,295.0,1455.0,4095.0,1280.0,1743.0
2235.0,292.0,1071.0,4095.0,1280.0,1743.0
2235.0,292.0,1071.0,4095.0,1280.0,1743.0
2235.0,292.0,1071.0,4095.0,1280.0,1743.0
2147.0,271.0,1011.0,4095.0,1284.0,1235.0
2147.0,148.0,923.0,4095.0,1282.0,896.0
2147.0,148.0,923.0,4095.0,1282.0,896.0
2224.0,146.0,757.0,4095.0,1282.0,896.0
2112.0,315.0,511.0,4095.0,1285.0,733.0
2112.0,315.0,511.0,4095.0,1279.0,463.0
2111.0,315.0,511.0,4095.0,1279.0,463.0
2111.0,260.0,304.0,4095.0,1279.0,463.0
2111.0,260.0,304.0,4095.0,1296.0,463.0
2111.0,260.0,304.0,4095.0,1296.0,409.0
1767.0,260.0,304.0,4095.0,1296.0,409.0
1535.0,327.0,240.0,4095.0,1293.0,285.0
1535.0,327.0,240.0,4095.0,1293.0,285.0
1139.0,316.0,240.0,4095.0,1293.0,285.0
1139.0,316.0,279.0,4095.0,1299.0,462.0
812.0,316.0,279.0,4095.0,1299.0,462.0
812.0,431.0,593.0,4095.0,1327.0,462.0
812.0,431.0,593.0,4095.0,1327.0,784.0
958.0,575.0,335.0,4095.0,1331.0,1125.0
958.0,575.0,335.0,4095.0,1331.0,1125.0
1738.0,538.0,359.0,4095.0,1335.0,1305.0
1738.0,480.0,337.0,4095.0,1330.0,1403.0
1738.0,480.0,337.0,4095.0,1330.0,1403.0
1738.0,480.0,337.0,4095.0,1330.0,1403.0
2018.0,365.0,317.0,4095.0,1335.0,1483.0
2096.0,365.0,317.0,4095.0,1335.0,1483.0
2096.0,272.0,384.0,4095.0,1345.0,1523.0
1861.0,272.0,384.0,4095.0,1345.0,1523.0
1861.0,154.0,366.0,4095.0,1343.0,1506.0
1610.0,99.0,346.0,4095.0,1343.0,1506.0
1610.0,99.0,346.0,4095.0,1343.0,1506.0
1409.0,96.0,346.0,4095.0,1342.0,1459.0
1409.0,96.0,240.0,4095.0,1342.0,1459.0
1409.0,96.0,240.0,4095.0,1333.0,1425.0
1073.0,96.0,240.0,4095.0,1333.0,1425.0
1073.0,82.0,299.0,4095.0,1339.0,1405.0
770.0,49.0,299.0,4095.0,1339.0,1405.0
770.0,49.0,248.0,4095.0,1330.0,1382.0
624.0,31.0,243.0,4095.0,1334.0,1382.0
624.0,31.0,243.0,4095.0,1334.0,1306.0
528.0,11.0,339.0,4095.0,1331.0,1269.0
528.0,11.0,339.0,4095.0,1331.0,1269.0
528.0,11.0,339.0,4095.0,1331.0,1269.0
541.0,3.0,224.0,4095.0,1328.0,1119.0
573.0,7.0,224.0,4095.0,1328.0,1119.0
573.0,7.0,201.0,4095.0,1331.0,1088.0
624.0,16.0,610.0,4095.0,1342.0,1088.0
624.0,16.0,610.0,4095.0,1342.0,969.0
525.0,16.0,462.0,4095.0,1333.0,855.0
525.0,16.0,462.0,4095.0,1333.0,855.0
525.0,16.0,462.0,4095.0,1333.0,855.0
511.0,69.0,363.0,4095.0,1340.0,744.0
691.0,69.0,363.0,4095.0,1340.0,744.0
691.0,114.0,566.0,4095.0,1349.0,744.0
1325.0,222.0,592.0,4095.0,1349.0,1079.0
1325.0,222.0,592.0,4095.0,1353.0,1195.0
1325.0,222.0,592.0,4095.0,1353.0,1195.0
1405.0,274.0,592.0,4095.0,1353.0,1195.0
1568.0,298.0,899.0,4095.0,1350.0,1509.0
1568.0,298.0,899.0,4095.0,1350.0,1509.0
1568.0,298.0,899.0,4095.0,1350.0,1509.0
1524.0,368.0,1331.0,4095.0,1344.0,1509.0
1524.0,368.0,1331.0,4095.0,1344.0,1509.0
1524.0,368.0,1331.0,4095.0,1344.0,1191.0
1716.0,443.0,1467.0,4095.0,1344.0,1191.0
1550.0,561.0,1806.0,4095.0,1356.0,1520.0
1550.0,561.0,1806.0,4095.0,1356.0,1520.0
1980.0,473.0,2259.0,4095.0,1365.0,1951.0
1767.0,473.0,2259.0,4095.0,1365.0,2191.0
1767.0,418.0,2011.0,4095.0,1351.0,2062.0
1616.0,418.0,2011.0,4095.0,1351.0,2062.0
1616.0,432.0,1781.0,4095.0,1358.0,2082.0
1321.0,432.0,1781.0,4095.0,1358.0,2082.0
1321.0,400.0,1916.0,4095.0,1309.0,1926.0
1349.0,400.0,1916.0,4095.0,1309.0,1926.0
1349.0,547.0,1872.0,4095.0,1310.0,1869.0
1349.0,547.0,1872.0,4095.0,1310.0,1869.0
1499.0,547.0,1872.0,4095.0,1310.0,1869.0
1499.0,592.0,2078.0,4095.0,1310.0,1548.0
1650.0,592.0,2078.0,4095.0,1310.0,1548.0
1650.0,707.0,2180.0,4095.0,1313.0,1645.0
1715.0,653.0,2180.0,4095.0,1313.0,1645.0
1715.0,653.0,1820.0,4095.0,1293.0,1719.0
1853.0,653.0,1820.0,4095.0,1293.0,1719.0
1853.0,589.0,2672.0,4095.0,1308.0,1719.0
1853.0,589.0,2672.0,4095.0,1308.0,2115.0
1853.0,589.0,2672.0,4095.0,1308.0,2115.0
2103.0,589.0,2672.0,4095.0,1308.0,2115.0
2103.0,673.0,2624.0,4095.0,1303.0,2115.0
1971.0,673.0,2624.0,4095.0,1303.0,2103.0
1971.0,526.0,2624.0,4095.0,1303.0,2103.0
1971.0,526.0,2373.0,4095.0,1303.0,2103.0
1971.0,526.0,2373.0,4095.0,1309.0,2103.0
1971.0,526.0,2373.0,4095.0,1309.0,2103.0
1712.0,526.0,2373.0,4095.0,1309.0,1690.0
1313.0,443.0,1599.0,4095.0,1296.0,1522.0
1313.0,364.0,1116.0,4095.0,1296.0,1522.0
1313.0,364.0,1116.0,4095.0,1296.0,1522.0
1313.0,364.0,1116.0,4095.0,1296.0,1297.0
721.0,345.0,698.0,4095.0,1296.0,912.0
721.0,345.0,698.0,4095.0,1299.0,805.0
659.0,346.0,510.0,4095.0,1311.0,1015.0
659.0,382.0,510.0,4095.0,1311.0,1015.0
689.0,382.0,398.0,4095.0,1293.0,1427.0
689.0,382.0,398.0,4095.0,1293.0,1427.0
592.0,382.0,398.0,4095.0,1293.0,1427.0
592.0,452.0,400.0,4095.0,1321.0,1637.0
624.0,452.0,400.0,4095.0,1321.0,1637.0
624.0,640.0,318.0,4095.0,1318.0,1651.0
795.0,640.0,318.0,4095.0,1318.0,1651.0
795.0,703.0,254.0,4095.0,1311.0,1600.0
1298.0,703.0,254.0,4095.0,1311.0,1600.0
1298.0,1840.0,431.0,4095.0,1312.0,1434.0
1298.0,1840.0,431.0,4095.0,1312.0,1434.0
1654.0,1840.0,431.0,4095.0,1312.0,1434.0
1654.0,1594.0,432.0,4095.0,1318.0,1206.0
2084.0,1489.0,432.0,4095.0,1318.0,1206.0
2084.0,1489.0,374.0,4095.0,1310.0,947.0
2288.0,1489.0,374.0,4095.0,1310.0,947.0
2288.0,1365.0,343.0,4095.0,1317.0,877.0
2373.0,1365.0,343.0,4095.0,1317.0,877.0
2373.0,1167.0,414.0,4095.0,1312.0,894.0
2373.0,1167.0,414.0,4095.0,1312.0,894.0
2346.0,1167.0,414.0,4095.0,1312.0,894.0
2346.0,1072.0,342.0,4095.0,1312.0,894.0
2346.0,1072.0,342.0,4095.0,1314.0,894.0
2096.0,763.0,342.0,4095.0,1314.0,931.0
2096.0,763.0,707.0,4095.0,1314.0,931.0
1706.0,535.0,574.0,4095.0,1321.0,913.0
1706.0,535.0,574.0,4095.0,1321.0,947.0
1179.0,535.0,574.0,4095.0,1321.0,947.0
1179.0,295.0,746.0,4095.0,1311.0,933.0
1179.0,295.0,746.0,4095.0,1311.0,933.0
832.0,295.0,746.0,4095.0,1311.0,933.0
832.0,187.0,614.0,4095.0,1325.0,1008.0
907.0,187.0,614.0,4095.0,1325.0,1008.0
907.0,245.0,756.0,4095.0,1330.0,1109.0
1012.0,245.0,756.0,4095.0,1330.0,1109.0
1012.0,246.0,1051.0,4095.0,1333.0,1207.0
1262.0,246.0,1051.0,4095.0,1333.0,1207.0
1262.0,222.0,1038.0,4095.0,1325.0,1170.0
1052.0,275.0,1038.0,4095.0,1325.0,1170.0
1052.0,275.0,1545.0,4095.0,1328.0,1029.0
1052.0,275.0,1545.0,4095.0,1328.0,1029.0
1139.0,287.0,1545.0,4095.0,1328.0,1029.0
1139.0,287.0,1591.0,4095.0,1328.0,1103.0
1075.0,272.0,1742.0,4095.0,1328.0,816.0
917.0,272.0,1742.0,4095.0,1328.0,816.0
917.0,339.0,4095.0,4095.0,1328.0,817.0
1008.0,339.0,4095.0,4095.0,1328.0,817.0
1008.0,286.0,1651.0,4095.0,1320.0,767.0
1008.0,286.0,1651.0,4095.0,1320.0,767.0
1046.0,286.0,1651.0,4095.0,1320.0,767.0
1046.0,208.0,1569.0,4095.0,1329.0,816.0
813.0,208.0,1569.0,4095.0,1329.0,816.0
813.0,178.0,907.0,4095.0,1320.0,848.0
694.0,178.0,907.0,4095.0,1320.0,848.0
694.0,165.0,1323.0,4095.0,1320.0,848.0
694.0,165.0,1323.0,4095.0,1320.0,848.0
592.0,94.0,1323.0,4095.0,1328.0,761.0
592.0,94.0,688.0,4095.0,1328.0,761.0
595.0,29.0,448.0,4095.0,1315.0,623.0
595.0,29.0,448.0,4095.0,1315.0,623.0
595.0,29.0,448.0,4095.0,1315.0,623.0
560.0,19.0,261.0,4095.0,1333.0,582.0
540.0,9.0,261.0,4095.0,1333.0,582.0
540.0,9.0,240.0,4095.0,1319.0,429.0
574.0,258.0,240.0,4095.0,1319.0,429.0
574.0,258.0,183.0,4095.0,1322.0,333.0
652.0,258.0,183.0,4095.0,1322.0,333.0
652.0,491.0,164.0,4095.0,1331.0,409.0
976.0,610.0,176.0,4095.0,1331.0,409.0
976.0,610.0,176.0,4095.0,1328.0,432.0
1335.0,704.0,176.0,4095.0,1328.0,432.0
1335.0,704.0,236.0,4095.0,1342.0,568.0
1714.0,624.0,236.0,4095.0,1342.0,568.0
1714.0,624.0,2047.0,4095.0,1329.0,665.0
2128.0,687.0,2047.0,4095.0,1329.0,665.0
2128.0,687.0,246.0,4095.0,1334.0,786.0
2334.0,677.0,246.0,4095.0,1334.0,786.0
2334.0,677.0,131.0,4095.0,1343.0,944.0
2334.0,677.0,131.0,4095.0,1343.0,944.0
2361.0,478.0,131.0,4095.0,1343.0,944.0
2361.0,478.0,193.0,4095.0,1354.0,1083.0
2271.0,389.0,193.0,4095.0,1354.0,1083.0
2271.0,389.0,196.0,4095.0,1346.0,1175.0
2138.0,327.0,196.0,4095.0,1346.0,1175.0
2138.0,327.0,208.0,4095.0,1344.0,1168.0
2138.0,327.0,208.0,4095.0,1344.0,1168.0
1958.0,327.0,208.0,4095.0,1344.0,1168.0
1958.0,235.0,272.0,4095.0,1345.0,1168.0
1807.0,192.0,254.0,4095.0,1348.0,1143.0
1807.0,128.0,272.0,4095.0,1348.0,1143.0
1725.0,128.0,272.0,4095.0,1334.0,1090.0
1725.0,128.0,272.0,4095.0,1334.0,1090.0
1314.0,128.0,272.0,4095.0,1334.0,1090.0
1314.0,112.0,171.0,4095.0,1335.0,1015.0
1286.0,225.0,254.0,4095.0,1333.0,901.0
1286.0,225.0,254.0,4095.0,1333.0,901.0
1555.0,225.0,235.0,4095.0,1331.0,807.0
1555.0,225.0,235.0,4095.0,1331.0,807.0
1616.0,229.0,235.0,4095.0,1331.0,807.0
1616.0,229.0,252.0,4095.0,1342.0,804.0
1754.0,283.0,252.0,4095.0,1342.0,804.0
1754.0,283.0,399.0,4095.0,1333.0,739.0
1872.0,299.0,799.0,4095.0,1333.0,739.0
1872.0,299.0,799.0,4095.0,1325.0,803.0
2326.0,299.0,681.0,4095.0,1338.0,1037.0
2326.0,299.0,681.0,4095.0,1338.0,1037.0
2326.0,299.0,681.0,4095.0,1338.0,1037.0
1987.0,374.0,681.0,4095.0,1338.0,1037.0
1987.0,374.0,875.0,4095.0,1330.0,933.0
2276.0,382.0,875.0,4095.0,1330.0,933.0
2276.0,382.0,662.0,4095.0,1330.0,933.0
2276.0,382.0,662.0,4095.0,1328.0,933.0
1577.0,387.0,479.0,4095.0,1316.0,917.0
1572.0,373.0,479.0,4095.0,1316.0,917.0
1572.0,373.0,593.0,4095.0,1328.0,899.0
1572.0,373.0,593.0,4095.0,1328.0,899.0
1134.0,212.0,593.0,4095.0,1328.0,899.0
1134.0,212.0,496.0,4095.0,1328.0,899.0
1134.0,212.0,496.0,4095.0,1328.0,899.0
1122.0,212.0,496.0,4095.0,1328.0,880.0
1122.0,219.0,429.0,4095.0,1328.0,880.0
935.0,106.0,356.0,4095.0,1325.0,685.0
935.0,102.0,330.0,4095.0,1312.0,713.0
726.0,42.0,290.0,4095.0,1328.0,702.0
726.0,42.0,290.0,4095.0,1328.0,702.0
726.0,42.0,290.0,4095.0,1328.0,702.0
558.0,95.0,290.0,4095.0,1328.0,702.0
558.0,95.0,358.0,4095.0,1328.0,702.0
558.0,95.0,358.0,4095.0,1328.0,701.0
451.0,74.0,304.0,4095.0,1330.0,662.0
638.0,74.0,304.0,4095.0,1330.0,662.0
638.0,200.0,331.0,4095.0,1326.0,689.0
1013.0,200.0,331.0,4095.0,1326.0,689.0
1013.0,194.0,417.0,4095.0,1328.0,722.0
1437.0,194.0,417.0,4095.0,1328.0,722.0
1437.0,439.0,334.0,4095.0,1335.0,722.0
1437.0,439.0,334.0,4095.0,1335.0,877.0
1437.0,439.0,334.0,4095.0,1335.0,877.0
1856.0,923.0,334.0,4095.0,1335.0,877.0
1856.0,923.0,386.0,4095.0,1345.0,1136.0
2247.0,1072.0,493.0,4095.0,1345.0,1136.0
2247.0,1072.0,493.0,4095.0,1344.0,1373.0
2578.0,1084.0,493.0,4095.0,1344.0,1373.0
2578.0,1084.0,528.0,4095.0,1351.0,1475.0
2688.0,1084.0,528.0,4095.0,1351.0,1475.0
2688.0,793.0,425.0,4095.0,1351.0,1475.0
2688.0,793.0,425.0,4095.0,1351.0,1475.0
2688.0,793.0,425.0,4095.0,1328.0,1463.0
2640.0,523.0,360.0,4095.0,1335.0,1463.0
2640.0,523.0,360.0,4095.0,1335.0,1610.0
2379.0,523.0,360.0,4095.0,1335.0,1610.0
2379.0,521.0,306.0,4095.0,1335.0,1610.0
2379.0,521.0,306.0,4095.0,1335.0,1610.0
2004.0,337.0,306.0,4095.0,1344.0,1597.0
2004.0,337.0,210.0,4095.0,1344.0,1597.0
1605.0,187.0,252.0,4095.0,1327.0,1505.0
1605.0,187.0,252.0,4095.0,1327.0,1505.0
1262.0,187.0,252.0,4095.0,1327.0,1505.0
1262.0,90.0,208.0,4095.0,1327.0,1359.0
1002.0,90.0,208.0,4095.0,1327.0,1359.0
1002.0,27.0,310.0,4095.0,1322.0,1135.0
822.0,27.0,310.0,4095.0,1322.0,1135.0
822.0,19.0,211.0,4095.0,1317.0,976.0
695.0,19.0,211.0,4095.0,1317.0,976.0
695.0,18.0,315.0,4095.0,1330.0,842.0
595.0,47.0,315.0,4095.0,1330.0,842.0
595.0,47.0,177.0,4095.0,1330.0,842.0
595.0,47.0,177.0,4095.0,1326.0,752.0
595.0,47.0,177.0,4095.0,1326.0,752.0
562.0,85.0,177.0,4095.0,1326.0,752.0
562.0,85.0,525.0,4095.0,1328.0,763.0
720.0,85.0,525.0,4095.0,1328.0,763.0
720.0,151.0,541.0,4095.0,1325.0,658.0
1040.0,144.0,541.0,4095.0,1325.0,658.0
1040.0,144.0,431.0,4095.0,1334.0,539.0
1351.0,144.0,431.0,4095.0,1334.0,539.0
1351.0,212.0,560.0,4095.0,1328.0,413.0
1616.0,212.0,560.0,4095.0,1328.0,413.0
1616.0,212.0,560.0,4095.0,1328.0,413.0
1616.0,208.0,560.0,4095.0,1328.0,413.0
1616.0,208.0,535.0,4095.0,1327.0,436.0
2163.0,208.0,535.0,4095.0,1327.0,436.0
2163.0,237.0,553.0,4095.0,1326.0,483.0
1933.0,237.0,553.0,4095.0,1326.0,483.0
1933.0,179.0,400.0,4095.0,1338.0,477.0
1911.0,145.0,400.0,4095.0,1338.0,477.0
1911.0,145.0,375.0,4095.0,1338.0,477.0
1911.0,145.0,375.0,4095.0,1328.0,477.0
2199.0,314.0,375.0,4095.0,1328.0,442.0
2199.0,314.0,375.0,4095.0,1328.0,442.0
2199.0,314.0,375.0,4095.0,1328.0,442.0
2160.0,415.0,784.0,4095.0,1344.0,658.0
2320.0,430.0,784.0,4095.0,1344.0,658.0
2320.0,430.0,778.0,4095.0,1327.0,559.0
2081.0,397.0,778.0,4095.0,1327.0,559.0
2081.0,397.0,527.0,4095.0,1333.0,596.0
2150.0,397.0,527.0,4095.0,1333.0,596.0
2150.0,390.0,575.0,4095.0,1333.0,596.0
2150.0,390.0,575.0,4095.0,1326.0,550.0
2150.0,390.0,575.0,4095.0,1326.0,550.0
2014.0,417.0,575.0,4095.0,1326.0,550.0
2014.0,417.0,606.0,4095.0,1325.0,695.0
2293.0,417.0,606.0,4095.0,1325.0,695.0
2293.0,401.0,707.0,4095.0,1339.0,787.0
1929.0,442.0,707.0,4095.0,1339.0,787.0
1929.0,442.0,901.0,4095.0,1331.0,750.0
1918.0,442.0,901.0,4095.0,1331.0,750.0
1918.0,432.0,541.0,4095.0,1339.0,1059.0
1918.0,432.0,541.0,4095.0,1339.0,1059.0
1918.0,432.0,541.0,4095.0,1339.0,1059.0
1775.0,367.0,897.0,4095.0,1328.0,718.0
1662.0,367.0,897.0,4095.0,1328.0,718.0
1662.0,267.0,702.0,4095.0,1323.0,789.0
1629.0,215.0,554.0,4095.0,1323.0,789.0
1629.0,215.0,554.0,4095.0,1328.0,621.0
1465.0,145.0,534.0,4095.0,1328.0,621.0
1465.0,145.0,534.0,4095.0,1328.0,537.0
1327.0,90.0,534.0,4095.0,1328.0,537.0
1327.0,90.0,310.0,4095.0,1323.0,449.0
1327.0,90.0,310.0,4095.0,1323.0,449.0
1327.0,90.0,310.0,4095.0,1323.0,449.0
1155.0,373.0,367.0,4095.0,1323.0,449.0
1155.0,373.0,367.0,4095.0,1328.0,449.0
1008.0,390.0,240.0,4095.0,1320.0,283.0
815.0,630.0,226.0,4095.0,1320.0,283.0
815.0,630.0,226.0,4095.0,1319.0,323.0
773.0,889.0,226.0,4095.0,1319.0,323.0
773.0,889.0,286.0,4095.0,1331.0,310.0
1323.0,889.0,286.0,4095.0,1331.0,310.0
1323.0,889.0,286.0,4095.0,1331.0,310.0
1323.0,2131.0,442.0,4095.0,1331.0,310.0
1323.0,2131.0,442.0,4095.0,1333.0,422.0
1904.0,2131.0,442.0,4095.0,1333.0,422.0
1904.0,1659.0,422.0,4095.0,1339.0,592.0
3197.0,1424.0,397.0,4095.0,1344.0,592.0
3197.0,1424.0,397.0,4095.0,1344.0,923.0
4016.0,1990.0,572.0,4095.0,1340.0,1183.0
4016.0,1990.0,572.0,4095.0,1340.0,1183.0
4016.0,1990.0,572.0,4095.0,1340.0,1183.0
4041.0,2869.0,1188.0,4095.0,1341.0,1343.0
4030.0,3146.0,1188.0,4095.0,1341.0,1343.0
4030.0,3146.0,973.0,4095.0,1329.0,1282.0
4035.0,2381.0,677.0,4095.0,1329.0,1282.0
4035.0,2381.0,677.0,4095.0,1329.0,1282.0
4019.0,1580.0,456.0,4095.0,1318.0,1196.0
4019.0,1580.0,456.0,4095.0,1318.0,1196.0
4019.0,1580.0,456.0,4095.0,1318.0,1073.0
4028.0,1580.0,456.0,4095.0,1318.0,1073.0
4028.0,1232.0,307.0,4095.0,1319.0,1015.0
3184.0,849.0,307.0,4095.0,1319.0,1015.0
3184.0,849.0,196.0,4095.0,1307.0,1047.0
2512.0,912.0,196.0,4095.0,1307.0,1047.0
2512.0,912.0,184.0,4095.0,1307.0,1047.0
1936.0,912.0,184.0,4095.0,1300.0,1031.0
1936.0,581.0,184.0,4095.0,1300.0,1031.0
1936.0,581.0,158.0,4095.0,1313.0,982.0
1487.0,581.0,158.0,4095.0,1313.0,982.0
1487.0,478.0,144.0,4095.0,1314.0,1005.0
1094.0,478.0,144.0,4095.0,1314.0,1005.0
1094.0,389.0,174.0,4095.0,1311.0,979.0
790.0,319.0,159.0,4095.0,1311.0,979.0
790.0,319.0,159.0,4095.0,1297.0,944.0
562.0,169.0,159.0,4095.0,1297.0,944.0
562.0,169.0,144.0,4095.0,1297.0,944.0
562.0,169.0,144.0,4095.0,1296.0,865.0
577.0,117.0,144.0,4095.0,1296.0,865.0
577.0,117.0,209.0,4095.0,1312.0,708.0
656.0,96.0,209.0,4095.0,1312.0,708.0
656.0,96.0,139.0,4095.0,1301.0,583.0
851.0,149.0,192.0,4095.0,1301.0,583.0
851.0,149.0,192.0,4095.0,1306.0,414.0
1059.0,112.0,214.0,4095.0,1317.0,331.0
1201.0,64.0,214.0,4095.0,1317.0,331.0
1201.0,64.0,191.0,4095.0,1310.0,306.0
1201.0,64.0,191.0,4095.0,1310.0,306.0
1201.0,64.0,191.0,4095.0,1310.0,306.0
1375.0,96.0,157.0,4095.0,1319.0,307.0
1415.0,134.0,145.0,4095.0,1319.0,307.0
1415.0,134.0,145.0,4095.0,1319.0,369.0
1625.0,128.0,145.0,4095.0,1319.0,369.0
1625.0,128.0,133.0,4095.0,1318.0,464.0
1985.0,153.0,133.0,4095.0,1318.0,464.0
1985.0,153.0,89.0,4095.0,1328.0,546.0
0.0,0.0,0.0,0.0,0.0,0.0
0.0,0.0,0.0,0.0,0.0,0.0
0.0,0.0,0.0,0.0,0.0,0.0
0.0,0.0,0.0,0.0,0.0,0.0
0.0,0.0,0.0,0.0,0.0,0.0
0.0,0.0,0.0,0.0,0.0,0.0
0.0,0.0,0.0,0.0,0.0,0.0
0.0,0.0,0.0,0.0,0.0,0.0
0.0,0.0,0.0,0.0,0.0,0.0
0.0,0.0,0.0,0.0,0.0,0.0
0.0,0.0,0.0,0.0,0.0,0.0
0.0,0.0,0.0,0.0,0.0,0.0
0.0,0.0,0.0,0.0,0.0,0.0
0.0,0.0,0.0,0.0,0.0,0.0
0.0,0.0,0.0,0.0,0.0,0.0
0.0,0.0,0.0,0.0,0.0,0.0
0.0,0.0,0.0,0.0,0.0,0.0
0.0,0.0,0.0,0.0,0.0,0.0
0.0,0.0,0.0,0.0,0.0,0.0
0.0,0.0,0.0,0.0,0.0,0.0
0.0,0.0,0.0,0.0,0.0,0.0
0.0,0.0,0.0,0.0,0.0,0.0
0.0,0.0,0.0,0.0,0.0,0.0
0.0,0.0,0.0,0.0,0.0,0.0
0.0,0.0,0.0,0.0,0.0,0.0
0.0,0.0,0.0,0.0,0.0,0.0
0.0,0.0,0.0,0.0,0.0,0.0
0.0,0.0,0.0,0.0,0.0,0.0
0.0,0.0,0.0,0.0,0.0,0.0
0.0,0.0,0.0,0.0,0.0,0.0
0.0,0.0,0.0,0.0,0.0,0.0
0.0,0.0,0.0,0.0,0.0,0.0
0.0,0.0,0.0,0.0,0.0,0.0
0.0,0.0,0.0,0.0,0.0,0.0
0.0,0.0,0.0,0.0,0.0,0.0
0.0,0.0,0.0,0.0,0.0,0.0
0.0,0.0,0.0,0.0,0.0,0.0
0.0,0.0,0.0,0.0,0.0,0.0
0.0,0.0,0.0,0.0,0.0,0.0
0.0,0.0,0.0,0.0,0.0,0.0
0.0,0.0,0.0,0.0,0.0,0.0
0.0,0.0,0.0,0.0,0.0,0.0
0.0,0.0,0.0,0.0,0.0,0.0
0.0,0.0,0.0,0.0,0.0,0.0
0.0,0.0,0.0,0.0,0.0,0.0
0.0,0.0,0.0,0.0,0.0,0.0
